timestamp_ms,ecg_u8_raw,ecg_counts_raw_int,ecg_counts_filt_monitor,ecg_counts_filt_diagnostic,ecg_counts_filt_st
1769250303928,127,-1,1.7900583613944034,-0.1956510652220902,-0.62182935451859
1769250303932,126,-2,0.8650990383109165,-1.6177500207806357,-1.5419390498476375
1769250303936,125,-3,0.1033413956288226,-2.342375844763466,-2.302071210521621
1769250303940,125,-3,-0.4276637066694214,-2.818958454386414,-2.8341454820596073
1769250303944,124,-4,-0.8070991657053384,-3.3662816791776766,-3.2157662844759187
1769250303948,124,-4,-1.2512084760519824,-3.499449530603573,-3.661226649998987
1769250303952,123,-5,-2.00454914332476,-4.384303607700737,-4.413068612315587
1769250303956,122,-6,-3.1766264236745365,-5.572523823178851,-5.579761185718239
1769250303960,121,-7,-4.627172729913302,-6.698313685274499,-7.0223437296740965
1769250303964,119,-9,-5.994749931013738,-8.497756884463161,-8.382940011561278
1769250303968,118,-10,-6.883935036792016,-9.427466418068247,-9.269660341755422
1769250303972,118,-10,-7.113582751745089,-9.457649976260411,-9.50187279105488
1769250303976,118,-10,-6.858254679485631,-9.547841861332705,-9.25048621996742
1769250303980,119,-9,-6.558233908982328,-8.789567105896086,-8.95011112884656
1769250303984,119,-9,-6.627987139565267,-8.434945385582047,-9.011858382577154
1769250303988,118,-10,-7.15931586205817,-9.559728805674146,-9.530037901709324
1769250303992,117,-11,-7.850715939998348,-10.331412927044516,-10.21134862223688
1769250303996,117,-11,-8.232417062116344,-10.724865604140229,-10.59461605173277
1769250304000,117,-11,-8.008590506280425,-10.693350729308408,-10.384641141083568
1769250304004,118,-10,-7.215938173876303,-9.519489527357193,-9.606375453779927
1769250304008,119,-9,-6.013653837530143,-8.565126975878334,-8.4016530297557
1769250304012,121,-7,-4.207346524785623,-6.3016110688936475,-6.56867716980355
1769250304016,126,-2,-0.9006332928193728,-1.8419335014377047,-3.223637792359102
1769250304020,131,3,5.241318685478122,3.376609751886199,2.9437415455850973
1769250304024,139,11,14.938612459973449,11.384961355888269,12.637269499083208
1769250304028,150,22,26.970370730630417,22.487829146932967,24.640680112767292
1769250304032,162,34,37.69284844312091,34.63511354318014,35.32971656895373
1769250304036,170,42,42.284278634001566,42.14778012279142,39.90179068956314
1769250304040,165,37,37.35765389636238,37.31518008090477,34.97980683819268
1769250304044,149,21,23.26707186225989,21.341968063148755,20.918103757332783
1769250304048,128,0,4.352309032331151,0.4519222137689791,2.047563895966478
1769250304052,110,-18,-13.203396162517446,-17.380650818982296,-15.466405886794805
1769250304056,101,-27,-24.476781433795328,-26.790571613129043,-26.720639129210813
1769250304060,98,-30,-27.868223936355268,-29.6921646684687,-30.12441704719717
1769250304064,101,-27,-25.072387718487192,-26.638935586110716,-27.361679567937344
1769250304068,107,-21,-19.413230975207476,-20.65749862832979,-21.73258486947772
1769250304072,111,-17,-13.881169544750016,-16.39545623113397,-16.207350469349638
1769250304076,115,-13,-10.021730726455424,-12.860976200142687,-12.327732212490474
1769250304080,117,-11,-7.972032580620752,-10.60625971697128,-10.243720233537475
1769250304084,118,-10,-7.158512642527238,-9.76927333660606,-9.400891662544415
1769250304088,119,-9,-6.9592104012011875,-8.575419817467951,-9.18989839481119
1769250304092,119,-9,-6.972431037181128,-8.565400891102545,-9.207947503848152
1769250304096,118,-10,-6.989536517859552,-9.760556243329903,-9.234279298426085
1769250304100,118,-10,-6.927654686016774,-9.662032535053225,-9.173421489631195
1769250304104,119,-9,-6.810464953831626,-8.769958636907436,-9.045790268267677
1769250304108,119,-9,-6.712727411170738,-8.610792078638775,-8.932775016375054
1769250304112,119,-9,-6.640898240772494,-8.626441458072748,-8.849227408833473
1769250304116,119,-9,-6.471440013953852,-8.748944815720417,-8.67394842398092
1769250304120,119,-9,-6.051434396325484,-8.678639221363149,-8.249985972537477
1769250304124,120,-8,-5.3788524520695145,-7.775884666248846,-7.5707373153507165
1769250304128,121,-7,-4.658050281251921,-6.666594106019596,-6.8403768271128715
1769250304132,122,-6,-4.137332053811443,-5.638883488570578,-6.310398533501959
1769250304136,122,-6,-3.877400021627068,-5.799158196827703,-6.043156234905163
1769250304140,121,-7,-3.697811760695078,-6.63073360048878,-5.8561850341501565
1769250304144,122,-6,-3.365037311604812,-5.87485692139551,-5.513649971546691
1769250304148,123,-5,-2.8163058542351234,-4.597886237873409,-4.953952622260906
1769250304152,124,-4,-2.18245534810736,-3.804158506261605,-4.310989918244652
1769250304156,124,-4,-1.6160976609402051,-3.640775080847897,-3.737775638524464
1769250304160,124,-4,-1.1387057944973702,-3.8372687971001778,-3.2528976221184274
1769250304164,125,-3,-0.6543665296924794,-2.7104883486015714,-2.7583363590952628
1769250304168,126,-2,-0.0701148603955279,-1.7962809361333187,-2.162448515745658
1769250304172,126,-2,0.6192080978334482,-1.7165919529975795,-1.4626723246078983
1769250304176,127,-1,1.3387935997693856,-0.6825449609149039,-0.7343978558271771
1769250304180,128,0,1.9965743661467563,0.0873393481249487,-0.0680622162220245
1769250304184,128,0,2.54500192699626,0.396395455473606,0.4903746361091721
1769250304188,129,1,3.0077651331131565,0.9716186436135774,0.9645220184892844
1769250304192,129,1,3.46107355358738,1.5049562551858582,1.4293223934745027
1769250304196,130,2,3.981006237117299,2.0432708056714017,1.9600569689106715
1769250304200,130,2,4.585842534471514,2.327923375350331,2.5754129037747906
1769250304204,131,3,5.212582595477864,3.1322042849750833,3.212972937484582
1769250304208,132,4,5.755649693345625,4.135331881620456,3.766902621606193
1769250304212,132,4,6.144899502945631,4.334869090205888,4.1667084679385304
1769250304216,132,4,6.389789954461137,4.1343344262471655,4.422482902914266
1769250304220,132,4,6.546317323061918,4.238018900486267,4.5910423719779585
1769250304224,133,5,6.655194748404828,5.150730195077919,4.71270765146165
1769250304228,133,5,6.727349872110336,5.064321198024767,4.797373956674418
1769250304232,132,4,6.776190607818849,4.366161779388968,4.858298110627956
1769250304236,133,5,6.835330402176973,5.051826357480367,4.929637329409329
1769250304240,133,5,6.935058551296675,5.301130570400351,5.041744080844803
1769250304244,133,5,7.06465406659045,5.016600875315385,5.183591979628598
1769250304248,133,5,7.151044560919793,5.1604196630785015,5.282219963199959
1769250304252,133,5,7.071241440461079,5.219564292366944,5.21493989231166
1769250304256,133,5,6.706692502855415,5.14142484526592,4.863164050400456
1769250304260,132,4,6.0142745559626105,4.208021223275358,4.183779806011229
1769250304264,131,3,5.056452554285375,3.009931937122129,3.2396674899278017
1769250304268,130,2,3.962365741530079,2.1643483079758443,2.1600904053221006
1769250304272,129,1,2.858967330675289,1.1201317457242026,1.0712490594365904
1769250304276,128,0,1.8299548619048391,0.2359267049648581,0.0560301025413345
1769250304280,127,-1,0.9140089208235284,-0.9319562093716632,-0.8466643571669326
1769250304284,126,-2,0.116230401462184,-1.9068864414775804,-1.6308739154703744
1769250304288,126,-2,-0.5807792157643299,-1.964543231984204,-2.313693841997173
1769250304292,125,-3,-1.2011546309439352,-2.810705898226688,-2.919620557400619
1769250304296,124,-4,-1.760743198943346,-3.8712831775448553,-3.4647664566409766
1769250304300,124,-4,-2.263009635633711,-3.840074010380704,-3.952579822609067
1769250304304,124,-4,-2.696831241070416,-4.088413638630165,-4.371798768934456
1769250304308,123,-5,-3.0269834695381506,-4.800695612941467,-4.68672344343242
1769250304312,123,-5,-3.192396869719817,-5.060337019582877,-4.835788154621068
1769250304316,123,-5,-3.1246326135265896,-4.628531370650689,-4.751132264222213
1769250304320,124,-4,-2.773802842056794,-4.134111618687248,-4.384454875174603
1769250304324,124,-4,-2.132320622612246,-3.8536799064126273,-3.7288956948338967
1769250304328,125,-3,-1.2613634296135603,-3.0605987326052357,-2.844358214661743
1769250304332,126,-2,-0.3018632185720609,-1.906337290345948,-1.8698660502956148
1769250304336,127,-1,0.5720771545174217,-0.7489992403806851,-0.9790015832103252
1769250304340,128,0,1.2545232510587097,-0.1303357221854921,-0.27873676492662
1769250304344,128,0,1.7825729887864292,0.1656628696790625,0.2668278700002813
1769250304348,129,1,2.3001012834041155,0.79864984077137,0.801209674803252
1769250304352,129,1,2.9223492367060055,1.219187157583137,1.4399129121955698
1769250304356,130,2,3.612547449892378,2.0764088040008004,2.146356583199255
1769250304360,131,3,4.180405695256857,3.005680202452913,2.730183554603814
1769250304364,131,3,4.408032009106359,3.0023109479173753,2.973674141210348
1769250304368,131,3,4.1974691961992985,2.8656061729867774,2.7796418588378486
1769250304372,130,2,3.6200237151706105,2.122764608370282,2.2201822506198745
1769250304376,129,1,2.8423026700802843,1.1174451257664226,1.4616536945307224
1769250304380,129,1,2.0108045030495627,0.9266579552688928,0.649217305557191
1769250304384,128,0,1.191473149608737,0.0781955781876386,-0.152231657238542
1769250304388,127,-1,0.3846635441676306,-1.3417075429098575,-0.9420471050334528
1769250304392,126,-2,-0.4308180240078569,-1.642075391047647,-1.7405253333804884
1769250304396,126,-2,-1.26747945271778,-2.243395664749876,-2.559829037819449
1769250304400,124,-4,-2.1240534101647635,-3.686311875025963,-3.398690825488326
1769250304404,124,-4,-2.9994466206348065,-4.369367347334837,-4.255669987659564
1769250304408,123,-5,-3.904157073991618,-4.9803340137866545,-5.140905419077942
1769250304412,122,-6,-4.843749853529535,-6.00517626352486,-6.060385288887787
1769250304416,121,-7,-5.782524118817938,-7.008575017216236,-6.97963759809085
1769250304420,120,-8,-6.6305978033687705,-7.84827104653532,-7.809903401181151
1769250304424,120,-8,-7.282232250112472,-8.357927282553659,-8.445097509067294
1769250304428,119,-9,-7.683646957452339,-8.959629153003076,-8.828939576405876
1769250304432,119,-9,-7.8762640976890035,-9.155864530541384,-8.999807962218245
1769250304436,119,-9,-7.971552040448691,-8.86069432335891,-9.069241707735763
1769250304440,119,-9,-8.064488588722643,-9.02771770463259,-9.137602163294153
1769250304444,119,-9,-8.151809758621063,-9.259049606180492,-9.209220273145649
1769250304448,119,-9,-8.125563869729836,-9.065879080406429,-9.178210996911504
1769250304452,119,-9,-7.832417789670225,-9.177849674421584,-8.882180600830848
1769250304456,119,-9,-7.087998284595436,-8.81893936302452,-8.120983673992953
1769250304460,122,-6,-5.5385171417670005,-6.137724343133915,-6.532156922554707
1769250304464,126,-2,-2.450291326531359,-2.1714506634032347,-3.391302724353051
1769250304468,131,3,3.230195637954907,2.794867263740689,2.3325606080439965
1769250304472,139,11,12.20325045987195,10.875298343052666,11.321996246871493
1769250304476,149,21,23.687845733545267,21.13335570993753,22.79759007980029
1769250304480,160,32,34.69796663817731,31.81601082856089,33.791501117383774
1769250304484,169,41,40.73019805797925,40.892931852710895,39.81953046688679
1769250304488,169,41,37.98391242552411,40.59878869529729,37.09031978225103
1769250304492,154,26,25.837822784447596,26.00934314156355,24.98290738922747
1769250304496,133,5,7.716909895058932,4.865684966928429,6.916780354779306
1769250304500,115,-13,-10.485180417364306,-12.949164052188928,-11.22775932482246
1769250304504,104,-24,-23.40502447580643,-24.36354268336668,-24.106829905098003
1769250304508,99,-29,-28.62028087275336,-29.042696014650396,-29.31111325422908
1769250304512,101,-27,-27.11647038420193,-27.365196556243124,-27.82017698880738
1769250304516,106,-22,-21.940437690536537,-21.80380191361738,-22.65919916747129
1769250304520,112,-16,-16.22570686998513,-16.4507163344918,-16.940779855611453
1769250304524,115,-13,-11.832419533813235,-12.930559627586764,-12.518484492053828
1769250304528,118,-10,-9.144906061466196,-10.49435716780472,-9.78557782797746
1769250304532,119,-9,-7.715691656908432,-8.939941262481575,-8.310956839277328
1769250304536,121,-7,-7.010563114166327,-7.271349238156136,-7.574034339633001
1769250304540,122,-6,-6.719730024185722,-6.131654395677943,-7.268227210423936
1769250304544,121,-7,-6.661107705459567,-7.242807201467428,-7.2028362891549085
1769250304548,120,-8,-6.645813911378879,-8.24995234909056,-7.175884303357904
1769250304552,121,-7,-6.524684347258538,-7.135955931467003,-7.0319458836724085
1769250304556,122,-6,-6.288995316982502,-6.19945230020901,-6.767169125731148
1769250304560,122,-6,-6.029519471889749,-6.268498725009586,-6.481154056678127
1769250304564,122,-6,-5.790948071797506,-6.148125035523092,-6.22159072905989
1769250304568,122,-6,-5.513582348495717,-6.387610462111829,-5.9247129429710705
1769250304572,122,-6,-5.125549308552793,-5.992327288898849,-5.514517235260442
1769250304576,124,-4,-4.646503019475958,-4.451542287649814,-5.011696937143047
1769250304580,124,-4,-4.166459741398723,-4.067097486011092,-4.509679249347474
1769250304584,124,-4,-3.7445878922612543,-4.4083225146547145,-4.0676456815329
1769250304588,124,-4,-3.3676277285379044,-4.145776626122719,-3.66884844332885
1769250304592,125,-3,-2.9965797518145543,-3.267707952186695,-3.272681496546891
1769250304596,126,-2,-2.6028517044252246,-2.269063541077855,-2.853447443354562
1769250304600,126,-2,-2.145368794669849,-2.283444601289955,-2.3735693528278947
1769250304604,126,-2,-1.5656560053921789,-2.271291630050982,-1.7741307301043894
1769250304608,127,-1,-0.8592441401410955,-1.2770014224328723,-1.047289309429421
1769250304612,128,0,-0.1411290473282855,-0.2086097218964147,-0.3061719883801999
1769250304616,129,1,0.4136260542711403,0.6131287891353966,0.2728737924986431
1769250304620,129,1,0.7287114570275455,0.7869275280153539,0.6115946337438107
1769250304624,129,1,0.9205903017153648,0.5840268378914353,0.8263123483483978
1769250304628,129,1,1.21550471076729,0.8622352998235572,1.144250272108219
1769250304632,130,2,1.7633476492819429,1.5758049151142886,1.7153362305452502
1769250304636,131,3,2.5273759087649834,2.782976070312072,2.5018337294555417
1769250304640,132,4,3.341923141796528,3.575650684814782,3.3379405955343504
1769250304644,132,4,4.0627010052960655,3.716862845222644,4.0807466979905636
1769250304648,133,5,4.669186917689206,4.727590031073947,4.7108029839179215
1769250304652,134,6,5.252376866004642,5.605444479204859,5.318374919622983
1769250304656,134,6,5.920157200983058,5.741269529647621,6.009849158094642
1769250304660,135,7,6.695510570216055,6.5371033125737625,6.807656693255674
1769250304664,136,8,7.48222669148814,7.731530448888586,7.616092609404435
1769250304668,137,9,8.132409322030211,8.650771765215337,8.28811007706561
1769250304672,137,9,8.565006618498542,8.635932117831985,8.743520873158701
1769250304676,137,9,8.829680444668217,8.649168410458193,9.03231417222852
1769250304680,138,10,9.062050968081058,9.578009691789475,9.289238747882733
1769250304684,138,10,9.375917042915262,9.64417098909047,9.626702719073904
1769250304688,138,10,9.774943253449392,9.69307731389731,10.048003542491491
1769250304692,139,11,10.13585875988517,10.545426403758732,10.430700214910638
1769250304696,139,11,10.271906291135371,10.683757813554632,10.588816995741489
1769250304700,139,11,10.038648296843352,10.471308198326984,10.37804925710301
1769250304704,138,10,9.406172546743328,9.734379167447583,9.768492146384766
1769250304708,137,9,8.443641524964692,8.513471745157034,8.82941945863233
1769250304712,136,8,7.24370126663951,7.718941262585079,7.65319850803818
1769250304716,135,7,5.868665790823455,6.41041936987788,6.301380944748198
1769250304720,133,5,4.364828057419673,4.727577750054421,4.8198047502441455
1769250304724,132,4,2.8118931235020894,3.4087359660198597,3.2887093467558968
1769250304728,130,2,1.3413307234828644,1.8094370934258588,1.840704036986176
1769250304732,129,1,0.0962103431754777,0.3514746067909401,0.6193879063596911
1769250304736,128,0,-0.8329769556592614,-0.2631625650019087,-0.2856700590124825
1769250304740,128,0,-1.440250285115308,-0.6553548927906565,-0.8701569685089512
1769250304744,127,-1,-1.7859836935163194,-1.257496710002551,-1.195020864776508
1769250304748,127,-1,-1.960112551958805,-1.5499972898243002,-1.3488273892208338
1769250304752,127,-1,-2.055905646874182,-1.3943084636422804,-1.4228712947024738
1769250304756,127,-1,-2.145285083101106,-1.508274138727391,-1.488508987839792
1769250304760,127,-1,-2.2410786389530686,-1.5474319619033845,-1.5598358335060918
1769250304764,127,-1,-2.2703296523873284,-1.305789614638786,-1.5655714099191504
1769250304768,127,-1,-2.1041214060371116,-1.65797877802812,-1.3773777106928595
1769250304772,127,-1,-1.6467712895150728,-1.2501375045746248,-0.8989846015821806
1769250304776,129,1,-0.9173466960724208,0.2122003092030626,-0.1485678349215162
1769250304780,129,1,-0.0468542015978195,0.7417637752003308,0.7435635630216448
1769250304784,130,2,0.8108842803274849,1.3302258462253356,1.6238606956991628
1769250304788,131,3,1.5802631119475772,2.670367488727699,2.4162003925751776
1769250304792,132,4,2.29680874225529,3.348586784690889,3.155184160279793
1769250304796,132,4,3.0424784823386974,3.5528095713953007,3.922575941619587
1769250304800,133,5,3.8273567324704745,4.361132572121901,4.729033511703677
1769250304804,134,6,4.522836000195989,5.674071859714668,5.446072521713744
1769250304808,135,7,4.924504037924546,6.257276855250475,5.868809204557431
1769250304812,134,6,4.896098009770451,5.731231989146062,5.8611375656018465
1769250304816,134,6,4.457491092692129,5.06255322506696,5.443817854837091
1769250304820,133,5,3.7454660013936767,4.8473713602473705,4.7538567622744825
1769250304824,133,5,2.907429887765576,4.1108409933654135,3.937896818793947
1769250304828,131,3,2.027335443869564,2.7887375219377692,3.079419214442578
1769250304832,131,3,1.12355673993034,2.161682521160446,2.197087661926951
1769250304836,130,2,0.1967594428843007,1.5151702740316506,1.2916040966598583
1769250304840,129,1,-0.721674017966913,0.4213056089965163,0.3937537444547914
1769250304844,128,0,-1.5714582294149055,-0.6019367819716845,-0.4363932503708569
1769250304848,127,-1,-2.3237666050917563,-1.4357542874910227,-1.1691801665540134
1769250304852,127,-1,-3.0379707437276293,-1.7804216902888768,-1.8628359325971409
1769250304856,126,-2,-3.83719895949572,-2.51247450040525,-2.6402179763479343
1769250304860,125,-3,-4.802355632724368,-3.675751860539231,-3.5833274494530274
1769250304864,124,-4,-5.874652968299569,-4.499144760161927,-4.6351960623144155
1769250304868,123,-5,-6.8623991920509155,-5.609887013150083,-5.604919435450566
1769250304872,122,-6,-7.56284807507108,-6.666176966041117,-6.287888918246728
1769250304876,122,-6,-7.907527588800036,-6.680361045886582,-6.611885845586458
1769250304880,122,-6,-8.006594036347721,-6.555641645010962,-6.6851230661748415
1769250304884,122,-6,-8.04703673391919,-6.6741095603532345,-6.698098582034169
1769250304888,122,-6,-8.134636640290136,-6.45183023895805,-6.764742691362537
1769250304892,122,-6,-8.228794327338097,-6.937923686386901,-6.850539710590531
1769250304896,121,-7,-8.222057248925807,-7.4250305941832195,-6.844148541403954
1769250304900,122,-6,-8.032837650026021,-6.90661797130481,-6.649424866829361
1769250304904,122,-6,-7.501571892139889,-6.315619491069946,-6.091951236686154
1769250304908,125,-3,-6.0602593446741215,-3.8959302775806526,-4.602760269448247
1769250304912,129,1,-2.5037146314642165,0.4905236672004345,-0.993729828388738
1769250304916,135,7,4.622158013532657,6.040672226810306,6.166139478085105
1769250304920,144,16,15.847605879911448,15.618182442564915,17.395854342618975
1769250304924,158,30,29.463265889051858,29.10242605235115,30.994051514557658
1769250304928,171,43,41.27321297738726,42.650163749404115,42.78436804515132
1769250304932,179,51,46.179089109782566,49.88796834101943,47.68681573852204
1769250304936,173,45,40.96444007660675,44.52280671573532,42.49450879059514
1769250304940,157,29,26.45390494825315,28.044662154924023,28.03075036471307
1769250304944,136,8,7.415349012793368,7.542459801798589,9.051056550927903
1769250304948,119,-9,-9.859251096802817,-9.780681721188264,-8.172619076676568
1769250304952,109,-19,-20.70347534782455,-19.689479452101207,-18.991843119028612
1769250304956,107,-21,-23.963914155123906,-21.79903108056506,-22.25744384147304
1769250304960,110,-18,-21.68653031368681,-18.7156037551809,-20.001930587807557
1769250304964,114,-14,-17.21707720383459,-14.751045781167615,-15.548152677987376
1769250304968,117,-11,-13.203574391649791,-11.661888971778335,-11.526397827715634
1769250304972,119,-9,-10.689656332029394,-9.825724948794296,-8.978495861821706
1769250304976,120,-8,-9.454066959462866,-8.736982541964874,-7.697457873475364
1769250304980,122,-6,-8.882933739968829,-6.767867650148283,-7.089388677760242
1769250304984,123,-5,-8.567765629718451,-5.816854999016034,-6.757313869070066
1769250304988,122,-6,-8.371817007191979,-6.6389240240898,-6.560029628070775
1769250304992,122,-6,-8.246824459829865,-6.937176068546214,-6.434539998054619
1769250304996,122,-6,-8.13457425420194,-6.60927281122594,-6.311299042670073
1769250305000,123,-5,-7.9967753892538145,-5.981403715352721,-6.152473950613047
1769250305004,123,-5,-7.833457571557917,-5.619868987336149,-5.966528260556795
1769250305008,123,-5,-7.6352853048112195,-5.95357424601671,-5.7508676152532185
1769250305012,123,-5,-7.3494426186081085,-5.654528275093578,-5.45268605740618
1769250305016,124,-4,-6.9213514881816005,-4.934529066705185,-5.013175550267336
1769250305020,124,-4,-6.364985533647354,-4.709387722022045,-4.443016531553521
1769250305024,125,-3,-5.771572951739442,-3.920611663796708,-3.8337227872695143
1769250305028,126,-2,-5.233251662776801,-2.769361632012659,-3.2799544079751484
1769250305032,126,-2,-4.757192268734375,-2.8445580542627695,-2.7903836821823096
1769250305036,126,-2,-4.2700706351762765,-2.8560600430782372,-2.2906864605369224
1769250305040,127,-1,-3.718391684389175,-1.741188830182841,-1.7256906378672658
1769250305044,128,0,-3.1523166287138107,-1.0507114991574789,-1.1455692248856115
1769250305048,128,0,-2.6908052992358265,-0.5984936008953864,-0.670668167217511
1769250305052,129,1,-2.4022164174288125,-0.1789982584269999,-0.3699326333518115
1769250305056,128,0,-2.2300749851271333,-0.4696015239607073,-0.1858437849017177
1769250305060,129,1,-2.0389821166343687,-0.2592424546693275,0.0181608700849378
1769250305064,129,1,-1.725117151339309,0.4715187681028401,0.3455261110129306
1769250305068,130,2,-1.2789062953628034,0.7816404457877144,0.8043379121476826
1769250305072,130,2,-0.7541640372842517,1.3863825760824238,1.3400903977205585
1769250305076,131,3,-0.1977593756645481,1.9644732891777013,1.9069108645020951
1769250305080,131,3,0.382935170763649,2.167356174372829,2.4988527348198755
1769250305084,132,4,0.9972271119539848,3.098281600022042,3.125266426818876
1769250305088,133,5,1.6357392780553828,3.9631664564120586,3.775413871894867
1769250305092,133,5,2.2617302827570285,4.284387690739615,4.411624335088345
1769250305096,134,6,2.824955555969632,4.901089592788898,4.984350878935151
1769250305100,134,6,3.278439058556485,5.281799750910966,5.447862245145428
1769250305104,135,7,3.598439934737771,5.826357763552075,5.778498942604159
1769250305108,135,7,3.809814537787875,6.251058870002502,6.0001535893866675
1769250305112,135,7,3.991490998871476,5.892857498370219,6.191295113142207
1769250305116,135,7,4.23622023787106,6.274688261485412,6.4452483841944215
1769250305120,136,8,4.588735225410473,6.855081663540507,6.807217173512969
1769250305124,136,8,5.0221880748558405,7.1531492854063625,7.249865802633156
1769250305128,137,9,5.475003370411509,7.93096344448847,7.710942905757749
1769250305132,137,9,5.901350010116116,8.084355863057654,8.144916733191607
1769250305136,137,9,6.277078087746882,8.120741417675898,8.528587219149372
1769250305140,138,10,6.564444863266958,8.859143152299799,8.824369904560616
1769250305144,138,10,6.692637535965652,9.17193488424782,8.96051574155046
1769250305148,138,10,6.585665937190322,8.77939528585026,8.860435474755146
1769250305152,137,9,6.205103643897725,8.254024010036343,8.486376429499177
1769250305156,137,9,5.564410793412685,7.85212004720726,7.852726564014561
1769250305160,136,8,4.715679897990137,7.081581464479043,7.011414564872022
1769250305164,135,7,3.733409526980029,5.9023815161799,6.0359321358915485
1769250305168,134,6,2.7019708647865017,4.958696313753047,5.010132720677571
1769250305172,133,5,1.6985114610635337,4.086176938431795,4.011835909535129
1769250305176,132,4,0.772725657869103,2.896996470894208,3.091846695936158
1769250305180,131,3,-0.0603313077687728,2.0400464225895067,2.265254848874889
1769250305184,131,3,-0.8007919235472145,1.8313920552662737,1.5304641830975398
1769250305188,130,2,-1.4326151441114838,1.0141710477990142,0.9022627034597596
1769250305192,129,1,-1.921349499996889,-0.0327864350101617,0.4159588076201705
1769250305196,129,1,-2.2535989357699795,-0.0467125264767939,0.0871845425215305
1769250305200,129,1,-2.463795955928771,-0.0543109360721138,-0.1175709360545063
1769250305204,129,1,-2.589468048840616,-0.1784355906488978,-0.2373444045641587
1769250305208,129,1,-2.588220330984041,0.0382116470316763,-0.2317998960322589
1769250305212,129,1,-2.3252557992249065,-0.1747087359951427,0.0335869839847264
1769250305216,129,1,-1.6838954966547623,0.0995683607013431,0.6768206709470665
1769250305220,131,3,-0.7077674491476094,1.6746912486219956,1.655063594714039
1769250305224,132,4,0.3784410017262373,3.0900334690931466,2.743061361796257
1769250305228,133,5,1.3104966029101837,3.6833665420148334,3.676180576797379
1769250305232,133,5,1.96218128646024,4.165329047539396,4.329120587411759
1769250305236,134,6,2.402512366311647,4.657246384696481,4.771957200901275
1769250305240,134,6,2.8017796943480997,5.0679286097764145,5.1745245961301665
1769250305244,135,7,3.2833001385736735,5.631852689988854,5.658466663227113
1769250305248,135,7,3.834163598526829,6.119948950517895,6.209696324653952
1769250305252,136,8,4.318596975458131,6.667823253342929,6.692752361699986
1769250305256,136,8,4.5613462088309324,7.091455736930807,6.933666695644396
1769250305260,136,8,4.434565028522874,6.553895329271943,6.805647212321402
1769250305264,135,7,3.9001823573220338,6.088220790432039,6.270691279021452
1769250305268,135,7,3.0058069442715034,5.648029980977175,5.3758980890355925
1769250305272,133,5,1.859063119929328,4.0536750222284486,4.228832726697422
1769250305276,132,4,0.5982151651003713,2.6837181912008843,2.968120234981036
1769250305280,131,3,-0.6329279893802169,1.8340184620281603,1.7370396389936398
1769250305284,130,2,-1.7020678798971756,0.8137113663551419,0.6662042089064978
1769250305288,129,1,-2.511955038613207,-0.1671495769890452,-0.1480305783843829
1769250305292,128,0,-3.050009576759335,-1.1226056582148656,-0.6915942169091196
1769250305296,128,0,-3.434942958160537,-1.2670884377913108,-1.0806503619207155
1769250305300,128,0,-3.8841330368961167,-1.242949644638875,-1.5317427262398646
1769250305304,127,-1,-4.576643195003927,-2.1978441031956613,-2.225695767680256
1769250305308,126,-2,-5.506905186428224,-3.1645198095318725,-3.1594867405286795
1769250305312,125,-3,-6.466924466347394,-4.190130538088673,-4.1258749828312835
1769250305316,124,-4,-7.191438644001394,-5.27410655495351,-4.8573887990525515
1769250305320,124,-4,-7.550084310385709,-5.313006762995413,-5.219865754270998
1769250305324,124,-4,-7.623880439154552,-5.153900938240449,-5.2925099278989105
1769250305328,124,-4,-7.6084995540305025,-5.267929441444085,-5.274508313051472
1769250305332,124,-4,-7.647080504079975,-5.099287761294995,-5.317185654011458
1769250305336,124,-4,-7.756332893348928,-5.493030042221162,-5.443681457066111
1769250305340,123,-5,-7.900622125313481,-6.141539002835039,-5.6149410257967185
1769250305344,123,-5,-8.074082253170527,-6.380350748122656,-5.810653144184196
1769250305348,123,-5,-8.16598715403998,-6.0795078852816635,-5.904696103787466
1769250305352,125,-3,-7.572838858976016,-4.30396134937779,-5.29134800236077
1769250305356,128,0,-4.910893651564715,-1.410076898359602,-2.6023956924404414
1769250305360,133,5,1.6043111061004651,3.7527574897355778,3.923976872962462
1769250305364,143,15,12.909975664800308,13.63580332662768,15.211919087738783
1769250305368,157,29,27.63010843485896,27.927755613955004,29.89028127278884
1769250305372,173,45,41.64691752484032,43.611837349856266,43.858872181720294
1769250305376,183,55,49.54815599780802,53.62176034226141,51.72451881807263
1769250305380,181,53,47.42105244463876,51.58896211232764,49.586523361117166
1769250305384,167,39,35.22695683847921,37.68692262234985,37.407451236588045
1769250305388,147,19,17.056028232566458,17.785084002432477,19.26666124339751
1769250305392,129,1,-0.9907295984776504,-0.2982125416827146,1.2453424624479643
1769250305396,117,-11,-13.881398749825088,-12.437998245805035,-11.64379088034775
1769250305400,112,-16,-19.73898574048996,-17.33616667062053,-17.530209273345566
1769250305404,113,-15,-19.866931940255697,-16.386481343516603,-17.706007943797843
1769250305408,115,-13,-17.136755899038988,-14.237434906409936,-15.020719045088356
1769250305412,117,-11,-14.093727585705553,-12.385671433469152,-12.00153326369318
1769250305416,119,-9,-11.961404017253718,-10.443273940984769,-9.869058183161211
1769250305420,120,-8,-10.79883233875321,-9.365008960181587,-8.694611198822203
1769250305424,121,-7,-10.227057614765036,-8.409242140028166,-8.116619361354331
1769250305428,122,-6,-9.9794093860861,-7.25048295757711,-7.878789916840164
1769250305432,122,-6,-9.970703416447924,-7.486929797288541,-7.893727465185373
1769250305436,121,-7,-10.102289011551456,-8.38786367464561,-8.051976445152278
1769250305440,121,-7,-10.166798445279976,-8.474873797926413,-8.136430801303774
1769250305444,121,-7,-9.968615120765904,-8.32197228235388,-7.950079225517177
1769250305448,122,-6,-9.485549900476869,-7.408479221992511,-7.476767876488396
1769250305452,123,-5,-8.873265291124806,-6.380387558342411,-6.878335954228627
1769250305456,123,-5,-8.31664340452324,-6.596609407012559,-6.340092312034952
1769250305460,123,-5,-7.889428133932699,-6.280856392445919,-5.9316176225594965
1769250305464,124,-4,-7.536017976689279,-5.584627466512786,-5.594265334454395
1769250305468,124,-4,-7.145345590575984,-5.198600117060715,-5.218110795394067
1769250305472,125,-3,-6.630217595273223,-4.643193151132467,-4.718894202865998
1769250305476,125,-3,-5.972442013724052,-4.430134786248177,-4.079451580121398
1769250305480,126,-2,-5.233844251321124,-3.456777073756703,-3.3602930085911034
1769250305484,127,-1,-4.527751512694596,-2.49763279676554,-2.6732913489905306
1769250305488,127,-1,-3.9528415015383938,-2.3081150202386445,-2.1169771462597304
1769250305492,128,0,-3.52979013746179,-1.623844939333905,-1.7126210238752275
1769250305496,128,0,-3.1939263936190363,-1.5090668423499565,-1.3957789075819602
1769250305500,128,0,-2.851579236575855,-1.4220846775259277,-1.072519937947125
1769250305504,129,1,-2.4478665853836983,-0.6073385125898376,-0.6879631172300223
1769250305508,129,1,-1.984709666008885,-0.2032712940861883,-0.2446484728137324
1769250305512,130,2,-1.4827435441628662,0.1439002972657481,0.2361992758029079
1769250305516,130,2,-0.9402326542302324,0.7201224279938911,0.7565984455356307
1769250305520,131,3,-0.3392865451030711,1.2420623548004328,1.3355441027445294
1769250305524,131,3,0.3094258846688265,1.6998255697012574,1.9632004996486927
1769250305528,132,4,0.9410015094644512,2.4572591983682184,2.5741106183602493
1769250305532,133,5,1.4717771922416745,3.360986709381488,3.0830424658680005
1769250305536,133,5,1.8673124534919443,3.522534507282491,3.4548886175277023
1769250305540,133,5,2.1654087131952124,3.283009390554811,3.7287597134707102
1769250305544,133,5,2.423177554340188,3.697627408006241,3.9634576847790344
1769250305548,134,6,2.654143279932905,4.341695155175776,4.172306547062501
1769250305552,134,6,2.8365087912531064,4.443816530956558,4.33170444025345
1769250305556,134,6,2.977771142973227,4.389537478782328,4.448125011507432
1769250305560,134,6,3.145030512433894,4.312921424745313,4.5895539718123946
1769250305564,134,6,3.416855067336953,4.669910344054608,4.835994705318703
1769250305568,135,7,3.812596923220762,5.255399561502571,5.207096864481919
1769250305572,135,7,4.279249895364978,5.524157983851807,5.649017482849741
1769250305576,136,8,4.745672890752838,6.219168379454489,6.089840966860019
1769250305580,136,8,5.180518260283799,6.431507156674913,6.498240060710713
1769250305584,136,8,5.5916929820041394,6.494900346765116,6.882566577315929
1769250305588,137,9,5.971368960254628,7.357104502681454,7.235185288352307
1769250305592,137,9,6.247585026548515,7.3967687334509264,7.484032325419181
1769250305596,137,9,6.295295826187287,7.255219706669713,7.504036479925457
1769250305600,137,9,6.004001194039456,7.366185398765901,7.184800274699744
1769250305604,136,8,5.351371680663338,6.470023139887724,6.504062429220023
1769250305608,135,7,4.424861009895281,5.3373786411381525,5.549344507134874
1769250305612,134,6,3.371106817075824,4.363955362650737,4.467332981468661
1769250305616,133,5,2.3133651413870275,3.2254163467008437,3.3810741242545452
1769250305620,132,4,1.3052846170400274,2.3361823976007403,2.3437699784418156
1769250305624,131,3,0.35160226033196,1.45556169549642,1.3599455867060015
1769250305628,130,2,-0.5381939524969874,0.2604615712330653,0.4393916166758022
1769250305632,129,1,-1.319614138136096,-0.5640477294715243,-0.3729514160172573
1769250305636,129,1,-1.9265110593426908,-0.9636195924618568,-1.0107477041300623
1769250305640,128,0,-2.303399222975695,-1.4797981385548398,-1.4184029245541507
1769250305644,128,0,-2.424383377994507,-1.830808853980942,-1.5698210286066363
1769250305648,128,0,-2.286412623878153,-1.4805700899080236,-1.4621537187993745
1769250305652,129,1,-1.8876460858633348,-0.8927987431606181,-1.0944640376187729
1769250305656,129,1,-1.2205794966202883,-0.6932619142011359,-0.4600449644191637
1769250305660,130,2,-0.3049013161764775,0.1919719210397077,0.4216937068928637
1769250305664,131,3,0.7606955415252611,1.4407306359371486,1.4531693079145098
1769250305668,132,4,1.7924139965825074,2.1760125327632744,2.4514019391286364
1769250305672,133,5,2.600798111257758,3.418038505649601,3.226883198443532
1769250305676,134,6,3.1097218417070573,3.910000679526021,3.7030765597917714
1769250305680,133,5,3.41009872484384,3.546227326868552,3.9707178468645887
1769250305684,134,6,3.686527228927997,4.0129981157388235,4.214128519004018
1769250305688,134,6,4.070003978727895,4.544663983866905,4.563490110548736
1769250305692,135,7,4.536587931919942,5.0133977647790395,4.994272086303358
1769250305696,135,7,4.92222763259628,5.233855836497406,5.343115080994965
1769250305700,135,7,5.026170532924523,5.200508315601324,5.410675465743435
1769250305704,135,7,4.726691296659829,5.234417043927327,5.0757344575782195
1769250305708,134,6,4.042597381554122,4.3270795961077315,4.356394242927925
1769250305712,133,5,3.107992330156142,3.109718200938227,3.3861350611993384
1769250305716,132,4,2.0796457684686804,2.1538050950639955,2.3219532642526968
1769250305720,131,3,1.0496229646281554,1.1585060963691831,1.2561784502353306
1769250305724,130,2,0.0345834284425896,0.256921600760313,0.2048371346791271
1769250305728,129,1,-0.9618572394311462,-0.7830714625638482,-0.8294301332123373
1769250305732,128,0,-1.8946829191116883,-1.8139013180843837,-1.8014159687073783
1769250305736,127,-1,-2.7028996292742065,-2.9856971156607295,-2.6484375769773525
1769250305740,126,-2,-3.391081319182314,-3.766831399139289,-3.373723213722158
1769250305744,126,-2,-4.06285112945959,-3.8792691922468223,-4.081923403009751
1769250305748,125,-3,-4.8403707695807325,-4.706839088251352,-4.897889358774006
1769250305752,124,-4,-5.735169366348431,-5.932048141520142,-5.8342444134608975
1769250305756,123,-5,-6.60763384739387,-6.940447847902135,-6.748746264003685
1769250305760,122,-6,-7.267544069047385,-7.861157432700618,-7.44669597214343
1769250305764,122,-6,-7.618451951301235,-7.883290139683827,-7.82994595767964
1769250305768,122,-6,-7.707831690287726,-7.7032072069016575,-7.950261401353195
1769250305772,122,-6,-7.655375341956047,-8.031703574195172,-7.935871582040235
1769250305776,122,-6,-7.55915363538981,-7.85706597545136,-7.890861013318358
1769250305780,122,-6,-7.472904129933776,-8.051651234023542,-7.865185737727682
1769250305784,121,-7,-7.410121221294261,-8.75586494333551,-7.858261027845725
1769250305788,122,-6,-7.222560156823814,-7.862653081823037,-7.707198479984711
1769250305792,124,-4,-6.300839502766126,-5.938975398320214,-6.800665968338659
1769250305796,127,-1,-3.354150828628706,-2.971607778598531,-3.8626348287445382
1769250305800,133,5,3.253043590094026,2.959578751594873,2.7213151399510265
1769250305804,142,14,14.394170899194751,12.205035159220614,13.812835460803065
1769250305808,156,28,28.83774663126263,26.093945587068315,28.18506878763691
1769250305812,172,44,42.79750176665794,42.10750699321246,42.0673039243963
1769250305816,182,54,51.1888856890245,51.90046383427806,50.391433398737114
1769250305820,181,53,50.17325385557971,50.98082797415394,49.32962816607552
1769250305824,169,41,39.403678462985056,39.07894397590631,38.53735880811213
1769250305828,150,22,22.39104837183855,20.045532237610946,21.517735370062265
1769250305832,132,4,4.692883873568368,2.1889283658220986,3.811338859613764
1769250305836,120,-8,-8.855086888865195,-10.222072778127828,-9.764641563977216
1769250305840,113,-15,-16.112347110726017,-16.815518402526315,-17.078097698158718
1769250305844,112,-16,-17.822197741168097,-18.185841688221956,-18.864039146327784
1769250305848,113,-15,-16.32785198406834,-16.790392545659916,-17.445855031915013
1769250305852,115,-13,-13.945734093394552,-15.045711168612764,-15.121732306881905
1769250305856,116,-12,-12.008624484139425,-14.107272815256758,-13.219061052024973
1769250305860,117,-11,-10.846381838504572,-12.890718678400273,-12.07750081545694
1769250305864,119,-9,-10.2760711219836,-11.260812684863987,-11.531499295703613
1769250305868,119,-9,-10.027286539989786,-10.71729779143449,-11.322837274849883
1769250305872,119,-9,-9.88349982712479,-11.264252250090935,-11.233512585106077
1769250305876,118,-10,-9.687907869682958,-11.888586143665844,-11.095013180246855
1769250305880,119,-9,-9.376221451348885,-11.161489609059076,-10.833039388762849
1769250305884,120,-8,-8.998799088897801,-10.056774745572149,-10.497663190877226
1769250305888,120,-8,-8.641636899583427,-9.965120543096557,-10.18115020543934
1769250305892,120,-8,-8.306034447254913,-10.127076692148686,-9.88928462749196
1769250305896,120,-8,-7.893458309023771,-10.04116000697871,-9.522936850469607
1769250305900,121,-7,-7.319495280952177,-9.087719791120838,-8.995332602317486
1769250305904,122,-6,-6.623345043153763,-8.16898724684315,-8.345108533083
1769250305908,122,-6,-5.952903264708562,-7.914735514190809,-7.72107266409671
1769250305912,123,-5,-5.448858353102663,-7.263481210992323,-7.264146875480345
1769250305916,123,-5,-5.143656080439676,-6.939045932985199,-7.005678031718448
1769250305920,123,-5,-4.956254031865494,-7.274645952948727,-6.863534681096512
1769250305924,123,-5,-4.765613633156065,-7.011035031242256,-6.7171839318554065
1769250305928,124,-4,-4.483314501469389,-6.145650923800974,-6.480082276660484
1769250305932,124,-4,-4.07221999968505,-6.094050351545269,-6.116178248972227
1769250305936,124,-4,-3.5324276265586647,-6.168436559299827,-5.6244938745321305
1769250305940,125,-3,-2.8960154959669877,-5.095347514054456,-5.035365866533116
1769250305944,126,-2,-2.2237138835308574,-4.263929522890314,-4.409329372199995
1769250305948,126,-2,-1.5768884319893488,-3.9255755125915384,-3.808880536525156
1769250305952,127,-1,-0.9821072970994706,-3.407438070119509,-3.261127550223305
1769250305956,127,-1,-0.4295703715800231,-2.8882791415606635,-2.755580485304806
1769250305960,128,0,0.0943499233409645,-2.4548280204500106,-2.277968056825716
1769250305964,128,0,0.5838130568311868,-1.960806221408222,-1.83469897364976
1769250305968,129,1,1.0280291013465743,-1.257670012465916,-1.4377175932227002
1769250305972,129,1,1.4399636474998148,-1.18919095081611,-1.074113632774203
1769250305976,129,1,1.8541828478666011,-1.0966753080153462,-0.7078682699075742
1769250305980,130,2,2.2910485448715576,-0.3940347066649834,-0.317405145031535
1769250305984,130,2,2.737475354636962,0.0082223057646243,0.0834566709653688
1769250305988,131,3,3.177934993347032,0.6452641073253987,0.4773170246092326
1769250305992,131,3,3.6354105519033144,0.9060803452813238,0.8865516259132744
1769250305996,131,3,4.155798487594369,0.7101151499623568,1.3583952486163366
1769250306000,132,4,4.742313658969723,1.7344248444179962,1.897412558367716
1769250306004,133,5,5.325267170488035,2.851030022768323,2.43368103691833
1769250306008,133,5,5.81809235530079,2.7093832931669,2.879689412478171
1769250306012,133,5,6.201517759349485,2.834381629342487,3.215968065670769
1769250306016,134,6,6.542680890406958,3.671407771077361,3.510077745069939
1769250306020,134,6,6.929519339838246,3.720327954253544,3.85017434388436
1769250306024,134,6,7.379278401544681,3.816604286107088,4.2532978596075965
1769250306028,135,7,7.794915813040842,4.679806889680482,4.621858849365623
1769250306032,135,7,8.005817607997427,4.8422428559460435,4.7846569321587635
1769250306036,135,7,7.863308715539751,4.54267987786051,4.593236761777463
1769250306040,134,6,7.313360290222757,3.829650413198664,3.9949613261305945
1769250306044,133,5,6.3967990707334375,2.601965662883337,3.031982870163821
1769250306048,132,4,5.206827545456186,1.8834206849348536,1.797160082364504
1769250306052,131,3,3.864373377745988,0.5774814800447376,0.4096618851942324
1769250306056,129,1,2.518150449991735,-1.2860257426820467,-0.9831002658755116
1769250306060,128,0,1.323735714187417,-2.356097376439168,-2.225317009392888
1769250306064,127,-1,0.3833599247926869,-3.3475052889177217,-3.2137050345867513
1769250306068,126,-2,-0.3069281695857953,-4.124126897487906,-3.9514901110589857
1769250306072,126,-2,-0.8443576388710803,-4.551700294399765,-4.535839182329632
1769250306076,125,-3,-1.3372971076055649,-5.147835527464933,-5.075387011537715
1769250306080,125,-3,-1.8121963401989305,-5.629660654013143,-5.596699180084347
1769250306084,124,-4,-2.1820344503060793,-6.096283442340807,-6.012448766608491
1769250306088,124,-4,-2.3036570361170865,-6.434574888405318,-6.179102061055457
1769250306092,124,-4,-2.079307600267412,-6.3055869516573715,-5.999351004436728
1769250306096,125,-3,-1.5193294181321109,-5.417805366309328,-5.48500881178531
1769250306100,126,-2,-0.7226687312913831,-4.49243415597446,-4.735987272704046
1769250306104,126,-2,0.1846520651189966,-4.220016437413644,-3.8771034469516303
1769250306108,127,-1,1.0846438424179816,-3.438974927298606,-3.0238783857923677
1769250306112,128,0,1.870346982575352,-2.2801780892786985,-2.28241769179623
1769250306116,129,1,2.4665125543051065,-1.5790332216083434,-1.7297101934661914
1769250306120,129,1,2.875065959132596,-1.340236028387342,-1.3658149120064804
1769250306124,129,1,3.1804928482192687,-1.476262716952389,-1.1061372306954995
1769250306128,129,1,3.4752156632325586,-1.204999264305108,-0.8568195305874797
1769250306132,130,2,3.766385792511183,-0.5897703357465489,-0.6102358961165366
1769250306136,130,2,3.9603486468479,-0.3205117269286248,-0.460910428467119
1769250306140,130,2,3.936467728377269,-0.6622190415697202,-0.5300947892706309
1769250306144,129,1,3.629849898541328,-1.22137131535276,-0.8821949513979981
1769250306148,129,1,3.053280802767611,-1.5084245635244544,-1.503642243681986
1769250306152,128,0,2.265570862889124,-2.362342434033386,-2.335271574715061
1769250306156,127,-1,1.3339216343873206,-3.58363386813342,-3.309801310959587
1769250306160,126,-2,0.3204442422920452,-4.480140006539844,-4.3653904260796015
1769250306164,125,-3,-0.7075924156160847,-5.442651146225175,-5.435815290893197
1769250306168,124,-4,-1.6674267482857128,-6.369621884652539,-6.439530623423147
1769250306172,123,-5,-2.48397944071385,-7.537528060461341,-7.301324082417784
1769250306176,122,-6,-3.150089763768311,-8.48071141702023,-8.01225022888071
1769250306180,122,-6,-3.7663857347649903,-8.63488158937188,-8.671243231108466
1769250306184,121,-7,-4.490762812491603,-9.349658146561012,-9.436431765641014
1769250306188,120,-8,-5.409458435846088,-10.529263353364948,-10.39608484091813
1769250306192,119,-9,-6.438384556173162,-11.426071000630593,-11.467960118624188
1769250306196,118,-10,-7.357634971691542,-12.658268085123304,-12.4316563763885
1769250306200,117,-11,-7.967517166399274,-13.528167089170106,-13.084344647192973
1769250306204,117,-11,-8.238305528373196,-13.487760015197829,-13.393163320444366
1769250306208,117,-11,-8.319895310434875,-13.483680671251763,-13.508867281448945
1769250306212,117,-11,-8.400425350900997,-13.479516322047134,-13.625761545650484
1769250306216,117,-11,-8.548337561040766,-13.720174496062276,-13.819524926454203
1769250306220,116,-12,-8.687283533318029,-14.481205274510389,-14.014573748410514
1769250306224,116,-12,-8.695576845031628,-14.65686992209005,-14.079670733892714
1769250306228,116,-12,-8.43888822482376,-14.298758993452433,-13.86615907380784
1769250306232,118,-10,-7.564664399425595,-12.790231576788964,-13.0145131022806
1769250306236,121,-7,-5.182929430684083,-9.384335296347263,-10.642992208875958
1769250306240,126,-2,0.1106690672043644,-4.94879952197051,-5.365746317959691
1769250306244,133,5,9.47119166434234,2.79626037850786,3.9573936152217377
1769250306248,146,18,22.517557104276975,15.184008927387826,16.944159997579646
1769250306252,160,32,36.47430126408707,29.659083738042547,30.830281681754435
1769250306256,173,45,46.75420378521732,42.16728104199841,41.04378962512816
1769250306260,176,48,49.0542043604428,45.34591592739748,43.29408781094466
1769250306264,167,39,41.7624884374594,36.4639767607432,35.975567159873
1769250306268,151,23,27.023142076417695,20.307809674191187,21.22915651931651
1769250306272,133,5,9.68096521826737,2.537247372014848,3.8857380939474258
1769250306276,119,-9,-5.177621970741269,-11.782352024997516,-10.987240721971917
1769250306280,110,-18,-14.493978025504603,-20.605401973347455,-20.34326903632845
1769250306284,107,-21,-18.054479049177132,-23.63037096335606,-23.96554824529817
1769250306288,108,-20,-17.70293596774434,-22.660967910551108,-23.681838032699144
1769250306292,109,-19,-15.790382153274075,-21.602974121778217,-21.824938540101964
1769250306296,110,-18,-13.952646520222972,-20.74261824426302,-20.021140204238236
1769250306300,111,-17,-12.786273693498732,-19.643640448572633,-18.871061212376127
1769250306304,112,-16,-12.22402380230597,-18.684082688124963,-18.321719803878057
1769250306308,113,-15,-12.023524746441396,-17.652055616823517,-18.144996266870287
1769250306312,113,-15,-11.984093671820403,-17.72277434594494,-18.144172012689076
1769250306316,112,-16,-11.939966711548903,-18.67138462273255,-18.14538982532299
1769250306320,112,-16,-11.756284793484763,-18.73793660754979,-18.002389837913654
1769250306324,113,-15,-11.390303448074418,-17.65553540392628,-17.66826863936081
1769250306328,114,-14,-10.902003368039912,-16.72700734968023,-17.207675681742643
1769250306332,114,-14,-10.361420031617394,-16.755191232043593,-16.69669279189522
1769250306336,114,-14,-9.764747671054344,-16.662123992835696,-16.132512617514003
1769250306340,115,-13,-9.067009725040322,-15.82622732909821,-15.467360170677711
1769250306344,116,-12,-8.278714040313087,-14.59108764716802,-14.71001050683752
1769250306348,117,-11,-7.49670488599491,-13.878524821599504,-13.958173614495935
1769250306352,117,-11,-6.835831121583347,-13.659485690475549,-13.327909915516171
1769250306356,118,-10,-6.3450066115583255,-12.824320704397428,-12.867864769884418
1769250306360,118,-10,-5.989511352212642,-12.713501409287774,-12.542190306162205
1769250306364,118,-10,-5.697707316493017,-12.76329333163334,-12.27880678605595
1769250306368,119,-9,-5.411832308286858,-11.761067518864742,-12.02068043640521
1769250306372,119,-9,-5.09701417468743,-11.842213022675953,-11.733880573316446
1769250306376,119,-9,-4.7203244715090085,-11.71572524099565,-11.385532670934024
1769250306380,120,-8,-4.243607394503245,-10.84179523081796,-10.936796937876762
1769250306384,120,-8,-3.646758623463639,-10.739593067135411,-10.367202730457908
1769250306388,121,-7,-2.9547701804100024,-9.792234111670766,-9.70213883240313
1769250306392,122,-6,-2.236213270407072,-8.921095300746277,-9.010600695974585
1769250306396,122,-6,-1.571630860317867,-8.661886892284631,-8.372740233987184
1769250306400,123,-5,-1.0166871716497474,-7.975566014429026,-7.843398320852922
1769250306404,123,-5,-0.579579698388669,-7.642865667457,-7.43074138806785
1769250306408,124,-4,-0.2147613485795083,-6.975360103218767,-7.090157684527103
1769250306412,124,-4,0.1625071540426403,-6.767092259510504,-6.737464622445202
1769250306416,124,-4,0.6317188522046993,-6.911873338598738,-6.292566092499545
1769250306420,125,-3,1.2133597605269264,-5.7426528807555135,-5.734321246260709
1769250306424,126,-2,1.8572441650645488,-4.966301040700625,-5.11337484868451
1769250306428,126,-2,2.490909167762986,-4.688904462962826,-4.503053792356495
1769250306432,127,-1,3.0765930761272857,-4.122877331138216,-3.940985654268728
1769250306436,127,-1,3.617838660724108,-3.6192969460358664,-3.422516225234215
1769250306440,128,0,4.122698135674881,-3.086675672509268,-2.938782552118951
1769250306444,128,0,4.579524988402313,-2.6927558501278104,-2.5017908346093702
1769250306448,129,1,4.976672211394171,-1.9975208963871631,-2.124333836908913
1769250306452,129,1,5.33678261743313,-1.8970703583346895,-1.7846124716661875
1769250306456,129,1,5.7122083496010765,-1.8854176212841471,-1.4301189744278688
1769250306460,130,2,6.1294343162431515,-0.9033690539180608,-1.033423976208005
1769250306464,130,2,6.531815932410318,-0.9115461071154188,-0.6502700058679853
1769250306468,130,2,6.783325917672148,-0.8493780595831282,-0.4167291572980747
1769250306472,131,3,6.747020256344945,-0.088863054764769,-0.4708134406356139
1769250306476,130,2,6.379999541813707,-0.7697951984013056,-0.8561572721367021
1769250306480,129,1,5.753801203728088,-2.0797476318702395,-1.5004313592585885
1769250306484,128,0,4.971902766684766,-2.788870074988294,-2.2989848947763223
1769250306488,128,0,4.073198465614963,-3.027126563524122,-3.2133464127160063
1769250306492,127,-1,3.0325467152888788,-3.975466775261118,-4.270080522869856
1769250306496,125,-3,1.8484357943305143,-5.912814327496087,-5.4707637208056275
1769250306500,124,-4,0.6042874216108094,-7.051051139514339,-6.730503568417637
1769250306504,123,-5,-0.5621178335345598,-7.815285216015433,-7.910782394716055
1769250306508,122,-6,-1.5358638715735131,-9.12955895243525,-8.89778662084634
1769250306512,121,-7,-2.2745432874805784,-9.848984665814772,-9.650573870610607
1769250306516,121,-7,-2.8047482442328966,-10.150383340422636,-10.195789156763931
1769250306520,120,-8,-3.183035924772244,-10.84683078475342,-10.588641805801858
1769250306524,120,-8,-3.448278421495855,-11.101035983090204,-10.866697469733056
1769250306528,120,-8,-3.5865727090166155,-10.900169296345815,-11.015956973449557
1769250306532,120,-8,-3.526097346944097,-11.110473482402304,-10.965550545163556
1769250306536,120,-8,-3.1739216258469325,-10.971586726438424,-10.623660737796854
1769250306540,121,-7,-2.4825396573755505,-10.055136285896284,-9.943482585166562
1769250306544,122,-6,-1.5023965547140925,-9.005720105640787,-8.975413921529967
1769250306548,123,-5,-0.3801036007049825,-7.999547280599301,-7.865005647545136
1769250306552,124,-4,0.697657390970009,-7.10001282179586,-6.797469286190795
1769250306556,125,-3,1.5828978679426924,-6.011926560656786,-5.920354515193576
1769250306560,126,-2,2.228546432026579,-5.096389547406992,-5.281797063666184
1769250306564,126,-2,2.693571248810505,-5.044994309634628,-4.824105945665142
1769250306568,126,-2,3.0713847330882063,-4.9738901150949735,-4.454168553930291
1769250306572,127,-1,3.3859767686037743,-4.232155681868639,-4.14768060162387
1769250306576,127,-1,3.54830842045023,-3.8597883772751542,-3.9934503365338543
1769250306580,127,-1,3.41944852405457,-4.400131482310205,-4.130047501090695
1769250306584,126,-2,2.9255593009324636,-4.727711856314965,-4.630557431024669
1769250306588,126,-2,2.126908533654806,-5.405733003249605,-5.434144183125694
1769250306592,124,-4,1.191355792727914,-6.823978523892993,-6.373245564524549
1769250306596,124,-4,0.2991965094693739,-7.315259701160697,-7.268621103910985
1769250306600,123,-5,-0.4516324833485242,-8.043739933715788,-8.023401053109332
1769250306604,122,-6,-1.0820384236188905,-9.088066672775952,-8.658898084338656
1769250306608,122,-6,-1.6974551975674803,-9.173030743496966,-9.280065467455415
1769250306612,121,-7,-2.4143244532069077,-10.025509947173324,-10.002051756657163
1769250306616,120,-8,-3.296978847140813,-11.259553698724856,-10.887590823236682
1769250306620,119,-9,-4.336346853870248,-12.079199673112797,-11.927038390021297
1769250306624,118,-10,-5.460994146025135,-13.187571704481016,-13.050604515004617
1769250306628,117,-11,-6.553954639262592,-14.081864335917674,-14.144251946309264
1769250306632,116,-12,-7.476071060241447,-15.18052950579715,-15.070075054451069
1769250306636,115,-13,-8.115791583740805,-16.17051123256646,-15.71413712474774
1769250306640,115,-13,-8.449865685687097,-16.20710193719192,-16.048754037752857
1769250306644,115,-13,-8.556492875348647,-16.152778461098375,-16.14978159209285
1769250306648,115,-13,-8.551962499563562,-16.147802443814108,-16.13646377614007
1769250306652,115,-13,-8.506465844025282,-16.16622856392324,-16.086503074924106
1769250306656,115,-13,-8.426839714824137,-16.25851160857529,-16.013392588013843
1769250306660,115,-13,-8.316205221742091,-16.16193369989002,-15.918838057911492
1769250306664,115,-13,-8.20203861294597,-16.29828010792918,-15.818316668115784
1769250306668,115,-13,-7.992809118117981,-16.01142882679144,-15.605183887608655
1769250306672,117,-11,-7.159563534927797,-14.383363757702789,-14.745871551739322
1769250306676,120,-8,-4.501341491309226,-11.06688669933208,-12.052150015581535
1769250306680,126,-2,1.5707805110466149,-5.437562187701667,-5.956428030333022
1769250306684,134,6,12.010772123112282,2.931368595421805,4.482209891797684
1769250306688,147,19,25.822930213168743,15.720693441944183,18.271773025394204
1769250306692,163,35,39.52239852796664,31.819391939818424,31.942210401490435
1769250306696,174,46,48.23263330223393,42.71393886710791,40.63278836588719
1769250306700,173,45,48.104991861481494,41.631300769314215,40.50605381736854
1769250306704,162,34,38.5460561159686,30.809940775549244,30.971999543384392
1769250306708,146,18,22.690951928288207,14.65341177121789,15.15816768396948
1769250306712,128,0,5.7769382226014585,-3.1072603743476015,-1.7153135691510926
1769250306716,115,-13,-7.488049678056116,-16.386158362371088,-14.95812955720757
1769250306720,109,-19,-14.906924455079466,-22.18820230155313,-22.380504087468232
1769250306724,108,-20,-17.08457767189975,-23.429598824971947,-24.57977447161717
1769250306728,108,-20,-16.217462014286987,-23.18685857537185,-23.734483971319072
1769250306732,109,-19,-14.477756325935152,-22.36815858205568,-21.999553931396207
1769250306736,110,-18,-13.060692800091903,-21.212295486766696,-20.56453553882453
1769250306740,111,-17,-12.198162034504708,-20.35110794376305,-19.67034498862955
1769250306744,112,-16,-11.693569727676332,-19.38363700341831,-19.1367602177427
1769250306748,113,-15,-11.366455142614363,-18.231634046325123,-18.79475117422712
1769250306752,113,-15,-11.151517720981824,-18.492551647988893,-18.577923673928435
1769250306756,112,-16,-11.004170243262896,-19.054589641943725,-18.431070309913284
1769250306760,113,-15,-10.85063483496281,-18.606537311722622,-18.270648901542433
1769250306764,113,-15,-10.63008960136364,-18.134834155025345,-18.034777947216504
1769250306768,114,-14,-10.324555624424184,-17.564511238641,-17.711555601124434
1769250306772,114,-14,-9.925643173390933,-17.251366773196175,-17.29809583157348
1769250306776,114,-14,-9.405169649140682,-17.298328781381255,-16.766272566755276
1769250306780,115,-13,-8.749347157391218,-16.48099839062881,-16.099010068966997
1769250306784,116,-12,-8.009916586642042,-15.214028784323062,-15.346166594026242
1769250306788,117,-11,-7.288890476173037,-14.653127349626867,-14.61064274798614
1769250306792,117,-11,-6.660006498199947,-14.145712816703693,-13.967459968591069
1769250306796,118,-10,-6.113898735846827,-13.513338726040573,-13.406946052401974
1769250306800,118,-10,-5.5846968458626325,-13.298522844824426,-12.862149190119064
1769250306804,119,-9,-5.020888282184293,-12.42489498193792,-12.281632639502185
1769250306808,120,-8,-4.422081762515955,-11.552839969467056,-11.666457489468623
1769250306812,120,-8,-3.815573347355126,-11.24815211146334,-11.044895203162667
1769250306816,121,-7,-3.2196113211424695,-10.532632812156328,-10.43424202684776
1769250306820,121,-7,-2.6426778009168332,-10.264701804078095,-9.841164378956377
1769250306824,122,-6,-2.1038065601971816,-9.571047706626526,-9.28434446198023
1769250306828,123,-5,-1.622975888310944,-8.417385576270576,-8.785242544692284
1769250306832,123,-5,-1.1796317335869115,-8.479165790197936,-8.324408443367796
1769250306836,123,-5,-0.7008276135303628,-8.342949189181034,-7.828109251075704
1769250306840,124,-4,-0.1134927984818585,-7.498800669012251,-7.222103150880515
1769250306844,125,-3,0.5931400451880662,-6.420343732282916,-6.496100840864575
1769250306848,126,-2,1.3652197691257584,-5.582667796186762,-5.705354543558759
1769250306852,126,-2,2.1314379104634216,-5.414259829393022,-4.92131072734986
1769250306856,127,-1,2.8363346162278007,-4.425917655376049,-4.1981208777593775
1769250306860,128,0,3.439945562075261,-3.5093322711392925,-3.574809974015596
1769250306864,128,0,3.918448688893126,-3.4361443970606205,-3.075611525691632
1769250306868,129,1,4.285426487517189,-2.645503810879928,-2.6878126160857856
1769250306872,129,1,4.607357178785649,-2.3756303290397573,-2.345119946910348
1769250306876,129,1,4.981312688497322,-2.559827706709905,-1.9500916527181364
1769250306880,130,2,5.482844203564745,-1.4049907245205824,-1.4271613104097924
1769250306884,131,3,6.124806086250065,-0.6060883186428825,-0.7639219020585202
1769250306888,131,3,6.852251158074428,-0.5329086484396983,-0.0154464278444645
1769250306892,132,4,7.563512542126128,0.4872402279832628,0.7169660844498469
1769250306896,133,5,8.142697635244492,1.4714426210044946,1.3176917585698835
1769250306900,133,5,8.496761356180814,1.541471305868221,1.6937999608106011
1769250306904,133,5,8.580604108963946,1.368432934546027,1.8004446810376231
1769250306908,133,5,8.396495095510716,1.456576759685866,1.6398879240141704
1769250306912,133,5,7.981025641417981,1.4415780303689203,1.2481425264699864
1769250306916,132,4,7.394641706966558,0.4429602540355151,0.6852413175809327
1769250306920,131,3,6.703639310974088,-0.4691969043890749,0.0177453838936112
1769250306924,131,3,5.950304294620587,-0.6913510966324026,-0.7118501549797873
1769250306928,130,2,5.137209631060211,-1.5172504709737735,-1.5013365446832978
1769250306932,129,1,4.243610886748964,-2.649839228570064,-2.371612375064682
1769250306936,128,0,3.2542942873395453,-3.5218209689247923,-3.3371955563098896
1769250306940,127,-1,2.176847180849937,-4.559807605548756,-4.3897262452780375
1769250306944,126,-2,1.050057788294413,-5.668232688340861,-5.490648746153486
1769250306948,125,-3,-0.0480587695844265,-6.569725162643832,-6.562990012244058
1769250306952,124,-4,-1.0047382759805237,-7.665496018466364,-7.4946205415439024
1769250306956,123,-5,-1.7059083847041294,-8.559611288252711,-8.171022632877822
1769250306960,123,-5,-2.085011993038574,-8.576542032749252,-8.52473724978493
1769250306964,123,-5,-2.146233499897524,-8.720179977107836,-8.559650759287491
1769250306968,123,-5,-1.9386995791764532,-8.542451403774795,-8.325485999771047
1769250306972,124,-4,-1.5073112980778904,-7.764662404295922,-7.867910458782584
1769250306976,124,-4,-0.8723106119472136,-7.506010107914683,-7.207165965547443
1769250306980,125,-3,-0.0616943738450714,-6.709617087164743,-6.370466672517565
1769250306984,126,-2,0.8397953672671621,-5.622657418231177,-5.4420572397877045
1769250306988,127,-1,1.6911869521313565,-4.703987584859618,-4.563421161625035
1769250306992,128,0,2.3647402484054605,-3.6376662977660192,-3.863000031785076
1769250306996,128,0,2.8220156586356695,-3.7014253377392135,-3.3789092957282625
1769250307000,128,0,3.1179680160037804,-3.5906794905782293,-3.0552624224393625
1769250307004,129,1,3.3324841072484928,-2.7692599811768144,-2.812179936447847
1769250307008,129,1,3.5035813940847165,-2.6429519125610126,-2.612742338364445
1769250307012,129,1,3.6160867224965223,-2.6921952907024997,-2.472752601987463
1769250307016,129,1,3.629116634285768,-2.7547626499517475,-2.432475224415315
1769250307020,129,1,3.503263390242055,-2.5700248535315584,-2.5305060415440592
1769250307024,129,1,3.215177046787235,-2.8674251339424823,-2.7902318074991763
1769250307028,128,0,2.762837724361213,-3.5887982433260506,-3.2141788293314684
1769250307032,128,0,2.1610331753655423,-3.7619150310236416,-3.7876398241278944
1769250307036,127,-1,1.431003237109944,-4.792167360657858,-4.488927481844605
1769250307040,126,-2,0.5972026396808561,-5.547215581626049,-5.293293214911255
1769250307044,126,-2,-0.3027166220256059,-6.0010995696378355,-6.16346108812289
1769250307048,124,-4,-1.2086740932095466,-7.448620976155519,-7.040079325289564
1769250307052,124,-4,-2.052630405367843,-7.975931547633974,-7.855385250929897
1769250307056,123,-5,-2.7993470365554787,-8.626173287651042,-8.573597017891238
1769250307060,122,-6,-3.4817381344250107,-9.773073311896043,-9.226836378499309
1769250307064,122,-6,-4.188742710627896,-9.86823828828862,-9.90399859623058
1769250307068,121,-7,-4.997061055061303,-10.554388388794056,-10.682700220955327
1769250307072,120,-8,-5.893632147358385,-11.998076067105142,-11.55070266694346
1769250307076,119,-9,-6.756679563619534,-12.58314351613483,-12.385626625493463
1769250307080,119,-9,-7.417490038469223,-12.947671237549155,-13.016446133207978
1769250307084,118,-10,-7.758884496594591,-13.72787945091094,-13.323613221442743
1769250307088,118,-10,-7.782247710684052,-13.70262841603394,-13.309473759630084
1769250307092,119,-9,-7.600064328047231,-12.952441510774497,-13.09272395180195
1769250307096,119,-9,-7.367122719296864,-12.61274829523679,-12.835678951010433
1769250307100,119,-9,-7.213200703768578,-13.0700658310076,-12.6685945014326
1769250307104,118,-10,-7.206126759524894,-13.59960828260921,-12.648678595648352
1769250307108,119,-9,-7.261816574308271,-12.908209592499505,-12.676802758132922
1769250307112,120,-8,-6.908766953568563,-11.777945159074305,-12.274789808481009
1769250307116,122,-6,-5.043492924347065,-9.82531463751852,-10.348164723248969
1769250307120,127,-1,-0.0793357361064406,-4.948313689469121,-5.329608232829866
1769250307124,135,7,9.20563324436324,3.2592755191350697,3.987193441102704
1769250307128,147,19,22.39401780601346,15.17311478422204,17.183821768265943
1769250307132,162,34,36.64054039719387,30.11471360027599,31.42755753406131
1769250307136,175,47,47.30387274238799,43.2481104359043,42.093572656744065
1769250307140,179,51,50.04315299686429,46.84637849158175,44.85315077516337
1769250307144,170,42,43.202387790806625,38.41514860811927,38.054946614956094
1769250307148,155,27,28.85909349464465,22.844845832153787,23.772149767784978
1769250307152,137,9,11.772580568761622,5.435303543533201,6.750503977445257
1769250307156,123,-5,-3.0509573152462472,-9.115508548851016,-8.02127109627515
1769250307160,114,-14,-12.587785601963336,-17.742777608845707,-17.53033178158096
1769250307164,111,-17,-16.57270842375513,-20.97174533083889,-21.508328630596033
1769250307168,111,-17,-16.700525880882175,-20.88368749055496,-21.635085951084676
1769250307172,112,-16,-15.125725389092343,-19.855742875758978,-20.048190594996832
1769250307176,113,-15,-13.34044714568038,-18.99742866449343,-18.231168243437025
1769250307180,114,-14,-11.940109670494504,-17.80462765393594,-16.78347599318704
1769250307184,116,-12,-11.011642508491777,-16.034109156019966,-15.805034742001698
1769250307188,117,-11,-10.540653666136183,-14.810614317755167,-15.293882415370485
1769250307192,117,-11,-10.49707763679826,-15.060435028288389,-15.223139974033502
1769250307196,116,-12,-10.723308385427815,-15.818821772101783,-15.428280340069827
1769250307200,116,-12,-10.917261349212348,-16.042196877213648,-15.597575012014056
1769250307204,116,-12,-10.79720989331741,-15.81947832635609,-15.445338156102352
1769250307208,117,-11,-10.28056440911048,-15.077670613103114,-14.89268266182091
1769250307212,118,-10,-9.494106548302884,-13.856691817312582,-14.072687565787655
1769250307216,119,-9,-8.626124284234177,-13.081112852427674,-13.176071000953568
1769250307220,119,-9,-7.7893626455211376,-12.829781808446622,-12.312424278077318
1769250307224,120,-8,-7.018695537120866,-12.070373017908578,-11.512077845890174
1769250307228,121,-7,-6.350752398521677,-10.886620570514744,-10.810895181298669
1769250307232,122,-6,-5.846174662771006,-10.100126112014532,-10.272813589642867
1769250307236,122,-6,-5.5189399959646215,-9.90036043078512,-9.914683804761314
1769250307240,122,-6,-5.280962431853449,-10.042550398283728,-9.647548967016746
1769250307244,122,-6,-4.996851629204393,-9.927337731575154,-9.333293906103336
1769250307248,123,-5,-4.59585836828523,-9.05705230597481,-8.900631161195477
1769250307252,124,-4,-4.1107329398748345,-8.018577872882586,-8.384389900902377
1769250307256,124,-4,-3.60979658267169,-7.9825171486728115,-7.854119481753454
1769250307260,124,-4,-3.1197069740043872,-8.057629399036166,-7.334919550035887
1769250307264,125,-3,-2.6236800646708582,-6.918351796787315,-6.808063326936731
1769250307268,126,-2,-2.10404345581282,-6.171891216618107,-6.2563736628892705
1769250307272,126,-2,-1.5579374737673777,-5.915637658535715,-5.679032889533675
1769250307276,127,-1,-0.984662655694636,-5.147310365476965,-5.076113172340785
1769250307280,127,-1,-0.3894905174200677,-4.926315835130877,-4.451814559665878
1769250307284,128,0,0.1941090742775442,-4.131298948798383,-3.838592351387772
1769250307288,129,1,0.70856603757203,-2.989497573492046,-3.294195748464494
1769250307292,129,1,1.1170733134045387,-3.1739935387506413,-2.855797196750821
1769250307296,129,1,1.4428384578246507,-2.8965873897730763,-2.4998051338757254
1769250307300,130,2,1.759048021473692,-2.2489517032374,-2.1527338459870133
1769250307304,130,2,2.144372132495871,-1.8748150159929489,-1.736659373117257
1769250307308,131,3,2.644688331878987,-1.2755651219659567,-1.2067556998814497
1769250307312,131,3,3.2552699852792406,-0.9686107795874896,-0.5677988193065291
1769250307316,132,4,3.919986233422793,-0.0845222987468634,0.1250155542773279
1769250307320,133,5,4.55407190713331,0.8144341149731074,0.7878241232142389
1769250307324,133,5,5.092223552732098,1.0747125764641343,1.3555827096008586
1769250307328,134,6,5.534800371192488,1.640985429295776,1.828339015092885
1769250307332,134,6,5.953845210247154,2.1565558723013893,2.2775769438040583
1769250307336,135,7,6.445658875986892,2.673927487183843,2.799193762358281
1769250307340,135,7,7.053274635261457,3.062896565346863,3.436085758655337
1769250307344,136,8,7.708192699554615,3.726513299706967,4.11948980353588
1769250307348,137,9,8.238287582213545,4.950197871168002,4.676917899459086
1769250307352,137,9,8.44125358809231,4.821182706965645,4.906527999804836
1769250307356,136,8,8.167196067110256,3.9324712751654736,4.659861891819353
1769250307360,136,8,7.362410725225449,3.79153924767094,3.884014366884758
1769250307364,135,7,6.082571104221827,2.8883612652331947,2.6338110641817796
1769250307368,133,5,4.492106847810705,0.7746177340731433,1.072556965620996
1769250307372,131,3,2.8284094429570894,-1.0583363494625244,-0.5623704021860254
1769250307376,130,2,1.3210744642585184,-2.216119214158459,-2.04110589100354
1769250307380,129,1,0.1140932046902791,-3.130786085310751,-3.220211270052515
1769250307384,128,0,-0.7589047653515388,-4.2288611010708586,-4.066659001020639
1769250307388,127,-1,-1.3534318353607957,-5.176181002435481,-4.635495171733252
1769250307392,127,-1,-1.7767780776687627,-5.116151887408044,-5.032931719721979
1769250307396,127,-1,-2.139744366977697,-5.23591611959774,-5.369054745988777
1769250307400,126,-2,-2.501169130635071,-6.140645809637164,-5.702510887668629
1769250307404,126,-2,-2.834039426364457,-6.3037272146942485,-6.006653326482592
1769250307408,126,-2,-3.0371807280988055,-6.118552752089973,-6.181415429179787
1769250307412,126,-2,-2.986767243291253,-6.246207096230673,-6.1041003098954665
1769250307416,126,-2,-2.60774611558794,-6.110068374785014,-5.699613298626545
1769250307420,127,-1,-1.9347450276048488,-5.361375523099527,-5.001522131536097
1769250307424,128,0,-1.1155916449500254,-4.103635038616658,-4.1568783818931845
1769250307428,129,1,-0.3352018764966145,-3.3957477513415273,-3.350598336746394
1769250307432,129,1,0.2898195388640399,-2.986126427950232,-2.6994623280727907
1769250307436,130,2,0.7594611308630312,-2.424711684693904,-2.2035655177639257
1769250307440,130,2,1.1490851037053185,-2.110323833721244,-1.7878321296135915
1769250307444,131,3,1.5267397915108043,-1.3991411387280817,-1.384498110185029
1769250307448,131,3,1.8974049474387649,-1.1597749814074918,-0.988336291787363
1769250307452,131,3,2.204384033274522,-1.2315972759573517,-0.6557040683323043
1769250307456,132,4,2.375682004740278,-0.2576230106327148,-0.4591266898497199
1769250307460,132,4,2.3758936012008913,-0.297350289533528,-0.4349330644846469
1769250307464,131,3,2.213299931268628,-1.3193583900823955,-0.5745979160441239
1769250307468,131,3,1.8902318990718985,-1.2263634140988051,-0.8743253482429134
1769250307472,131,3,1.3609965542459936,-1.2494999005165317,-1.378792391533302
1769250307476,130,2,0.5712518291544393,-2.251137605387851,-2.142704210568368
1769250307480,129,1,-0.445400486616156,-3.3756665371217944,-3.1335914833032397
1769250307484,128,0,-1.52269664007693,-4.296098108745017,-4.186256495946852
1769250307488,127,-1,-2.4391589733475567,-5.289538881198637,-5.079711861047121
1769250307492,126,-2,-3.071473271079858,-6.229193994988263,-5.690217274520213
1769250307496,126,-2,-3.498015578125286,-6.303320418377582,-6.095016039240474
1769250307500,126,-2,-3.95171199924057,-6.378579584787831,-6.526010543958011
1769250307504,125,-3,-4.6414018641299934,-7.352596864246244,-7.191856242747975
1769250307508,124,-4,-5.581250609685127,-8.278428087498018,-8.107579297396814
1769250307512,123,-5,-6.5706193263877655,-9.28433102389729,-9.07397128080261
1769250307516,122,-6,-7.340753839680078,-10.289472054334285,-9.823010001873184
1769250307520,122,-6,-7.745749602654767,-10.438948541655485,-10.207533057543833
1769250307524,122,-6,-7.8445517388569534,-10.34227498824968,-10.283607073823774
1769250307528,122,-6,-7.818525702870116,-10.335097591650973,-10.230879956953675
1769250307532,122,-6,-7.808976727367224,-10.26520250753789,-10.193363167308698
1769250307536,122,-6,-7.821221643312701,-10.360173512755008,-10.183316034766031
1769250307540,122,-6,-7.773232517084013,-10.418117596281636,-10.12418838363713
1769250307544,122,-6,-7.620776629703873,-10.416639382865048,-9.968396586998471
1769250307548,122,-6,-7.382619053447991,-10.295514227769484,-9.72161071564546
1769250307552,123,-5,-6.927928961432561,-9.358062798303216,-9.239635417326662
1769250307556,125,-3,-5.608900179738999,-7.282280086031253,-7.873956538257895
1769250307560,129,1,-2.1067797497394984,-3.5864502540487404,-4.321216720925053
1769250307564,135,7,5.072562886967068,2.7609618219501293,2.892298704605537
1769250307568,145,17,16.412271445665375,12.432440819924256,14.240022646522192
1769250307572,158,30,30.185134477163302,25.939855558436086,28.00154619784123
1769250307576,173,45,42.33587195079927,40.32818873020248,40.13785921798907
1769250307580,180,52,48.033567862354445,47.78800680076931,45.83365942369052
1769250307584,176,48,44.21436940309918,43.269802912879925,42.034644917678726
1769250307588,161,33,31.46179947031066,28.8377241266295,29.325205267240268
1769250307592,143,15,13.875730005916136,10.434764967974218,11.79509850420514
1769250307596,126,-2,-3.011508461296891,-6.202228331766264,-5.042057769645185
1769250307600,115,-13,-14.889572639731618,-17.615259677055036,-16.89305699403902
1769250307604,110,-18,-20.29000605304413,-22.31151755605189,-22.293583507450393
1769250307608,111,-17,-20.44988202854515,-21.567542600660385,-22.46900396441658
1769250307612,113,-15,-17.89411568327522,-19.2988427393272,-19.924485988635475
1769250307616,115,-13,-14.869831771406004,-17.518553499835402,-16.891692360153336
1769250307620,117,-11,-12.545881312183957,-15.388130273203837,-14.53730375702279
1769250307624,119,-9,-11.120612919305724,-13.504830844182091,-13.071224366745207
1769250307628,120,-8,-10.34911822016588,-12.473807136654845,-12.26523198954997
1769250307632,121,-7,-9.947843282553206,-11.414071616278976,-11.845644878993795
1769250307636,121,-7,-9.710279563632367,-11.517664568620695,-11.602699727390362
1769250307640,120,-8,-9.494163077028697,-12.383861690210868,-11.382271741980231
1769250307644,121,-7,-9.23617222827122,-11.538630853158622,-11.111771148781834
1769250307648,122,-6,-8.962816055147904,-10.47083474194287,-10.818145314836542
1769250307652,122,-6,-8.714977385162227,-10.482355523392073,-10.549158672265314
1769250307656,122,-6,-8.444055704973007,-10.521174181153022,-10.261188185269058
1769250307660,122,-6,-8.02150794633284,-10.394644431793532,-9.82506514059449
1769250307664,123,-5,-7.377679412752415,-9.586590107642705,-9.168125651472153
1769250307668,124,-4,-6.61548339081,-8.409004891441697,-8.392079335764159
1769250307672,125,-3,-5.957734955702186,-7.656415549394468,-7.720449941195593
1769250307676,125,-3,-5.567347340927288,-7.354397172238067,-7.316271539701765
1769250307680,125,-3,-5.412481850364097,-7.641398994854018,-7.14652729285528
1769250307684,125,-3,-5.294596448305638,-7.356765516603409,-7.012202259792406
1769250307688,126,-2,-4.997889211385786,-6.661383479104377,-6.699188520503028
1769250307692,126,-2,-4.429992214160821,-6.488702666524942,-6.117536649468519
1769250307696,127,-1,-3.665086039936327,-5.520280580313008,-5.341965459387979
1769250307700,128,0,-2.888179724955409,-4.577443842644929,-4.555464183178916
1769250307704,128,0,-2.289232650375597,-4.396480881527761,-3.9452746405204815
1769250307708,129,1,-1.9611369320911092,-3.715844174283171,-3.6032649624478506
1769250307712,129,1,-1.844057711521678,-3.4315965134468605,-3.4708846444779264
1769250307716,129,1,-1.7456360876260444,-3.677456704600928,-3.357865657393975
1769250307720,129,1,-1.4402653511236685,-3.420541942552801,-3.0397676102420004
1769250307724,130,2,-0.7991583592466127,-2.6123922481750226,-2.387715795449223
1769250307728,131,3,0.1350711056371625,-1.5247353308636828,-1.4436059138766415
1769250307732,132,4,1.1842386792919029,-0.6596114028546269,-0.3847598759482551
1769250307736,133,5,2.152356474761157,0.4764363999194367,0.5936244874058896
1769250307740,134,6,2.938493757732777,1.4125071404015517,1.3910986488312682
1769250307744,134,6,3.5699520802477265,1.4827194696239543,2.0348300173048983
1769250307748,135,7,4.147144984465609,2.3733411244324856,2.6243068553007034
1769250307752,136,8,4.757283331715742,3.3789939301709904,3.245472994854186
1769250307756,136,8,5.423777939300115,3.403196337193049,3.921173565437503
1769250307760,137,9,6.113544409034605,4.433411713712893,4.619038855539302
1769250307764,138,10,6.779989503532342,5.441787462414968,5.293919946838301
1769250307768,138,10,7.40580509492805,5.35360556736974,5.9295660965215555
1769250307772,139,11,8.018031496425593,6.376741624173629,6.552849208881694
1769250307776,140,12,8.66808658365547,7.350274009542959,7.213871428201763
1769250307780,140,12,9.38728934397537,7.434189729318703,7.942560640895005
1769250307784,141,13,10.136325055486822,8.433335039623524,8.699193500275031
1769250307788,142,14,10.777328110812102,9.292418730067943,9.346620152831452
1769250307792,142,14,11.09972047425474,9.419805510168668,9.67557422018217
1769250307796,142,14,10.901552108284854,9.248100230611993,9.485195110855592
1769250307800,141,13,10.086976746410723,8.49155718746469,8.679650138788725
1769250307804,140,12,8.724869471041977,7.352142525689207,7.326705616583335
1769250307808,138,10,7.028546350320493,5.313419912794675,5.638545024437983
1769250307812,136,8,5.258074483325315,3.386945301503878,3.8751003906991506
1769250307816,135,7,3.6039365090733257,2.205375504644761,2.2275367118923963
1769250307820,133,5,2.134468014667807,0.5331073053887381,0.7647872895541767
1769250307824,132,4,0.8391991014446281,-0.760910201034315,-0.5236851539333145
1769250307828,131,3,-0.2832528188415091,-1.571324436425208,-1.639807899409989
1769250307832,130,2,-1.1800073896785892,-2.8041292002523774,-2.530975921270672
1769250307836,129,1,-1.784543155862199,-3.630885411977836,-3.13021867847607
1769250307840,129,1,-2.0985165356504045,-3.6714981306081538,-3.4385308362547264
1769250307844,129,1,-2.219937486293139,-3.6004774142797804,-3.553864900525804
1769250307848,129,1,-2.2714950605587356,-3.742277187529831,-3.599458823951956
1769250307852,129,1,-2.2898282585008545,-3.7056161551885,-3.6123981613253786
1769250307856,129,1,-2.1863038747774786,-3.747373684560559,-3.5039503304064983
1769250307860,129,1,-1.8257445023635133,-3.628749845446413,-3.138569256384735
1769250307864,130,2,-1.155941767634637,-2.64375695915208,-2.4639809929864236
1769250307868,131,3,-0.2697997864306626,-1.749412606136859,-1.5734648367145423
1769250307872,132,4,0.6561248567250388,-0.7275113151311694,-0.6438656154851139
1769250307876,133,5,1.4872215044716686,0.2266721093930677,0.1905536685055202
1769250307880,133,5,2.2047243491232145,0.3421178846758153,0.911767104644532
1769250307884,134,6,2.868370591713209,1.3585036411465343,1.5797982862002198
1769250307888,135,7,3.5150305781356286,2.2228507102940047,2.230987415182344
1769250307892,135,7,4.090003201765667,2.2490683134472618,2.8098003983847466
1769250307896,136,8,4.465188687927229,3.229474563633956,3.1876408231433593
1769250307900,136,8,4.519836876209235,3.270475741751086,3.2438689948183215
1769250307904,135,7,4.212376763325837,2.406188862299298,2.9376435212647074
1769250307908,135,7,3.5883116309071115,2.1456396406013254,2.3154738856822625
1769250307912,134,6,2.7340098311816763,1.281803985882792,1.4643410264231296
1769250307916,133,5,1.733713137919978,0.1654563595071563,0.4681963613450071
1769250307920,132,4,0.6677172646853624,-0.7171344160811395,-0.5938532483549697
1769250307924,131,3,-0.3677222229671204,-1.6320033206278648,-1.627002892437589
1769250307928,130,2,-1.2691555669745402,-2.8502717307278207,-2.5284158196874227
1769250307932,129,1,-1.9844606241337717,-3.7577208825814488,-3.2450184698095397
1769250307936,129,1,-2.575458205179635,-3.83137519243414,-3.836591663879801
1769250307940,128,0,-3.2065719275431217,-4.772203700244244,-4.46598186411481
1769250307944,127,-1,-4.033566769092796,-5.595986092477627,-5.289404449257072
1769250307948,127,-1,-5.0634251378191655,-5.929309262431102,-6.316331046210224
1769250307952,125,-3,-6.108143902660341,-7.70859127186239,-7.361097821157834
1769250307956,124,-4,-6.900338532594873,-8.931094647738782,-8.155999202230698
1769250307960,124,-4,-7.296351167658628,-8.707205807840474,-8.554232046000731
1769250307964,124,-4,-7.388983362264993,-8.686365998837308,-8.645126004632086
1769250307968,124,-4,-7.417638924388144,-8.873935743017356,-8.667675830163041
1769250307972,124,-4,-7.553205959181825,-8.780806428782425,-8.79731078716301
1769250307976,124,-4,-7.756550830779708,-8.931739824296683,-9.002158207471194
1769250307980,123,-5,-7.842647982754619,-9.738035847035722,-9.100691984801111
1769250307984,123,-5,-7.6773624610530655,-9.6852241699025,-8.95299064895183
1769250307988,124,-4,-7.259265363067717,-8.909450193855335,-8.544648146852218
1769250307992,125,-3,-6.487325452327148,-7.739802808108205,-7.764388908587367
1769250307996,128,0,-4.735684829847308,-5.07643198313162,-5.988471962742031
1769250308000,131,3,-0.7101820892709467,-1.544718040715343,-1.937415717868632
1769250308004,138,10,6.951092574914188,4.966167980250116,5.733508465032202
1769250308008,148,20,18.422478750507636,15.582736914887604,17.19063661782114
1769250308012,162,34,31.61219996661942,28.56748444409679,30.34756659887634
1769250308016,174,46,42.31995032773239,41.75473515021237,41.018713451949296
1769250308020,180,52,45.97977761826348,46.42435464133179,44.65513146756629
1769250308024,171,43,40.10992931568263,39.01172471469435,38.787068055875395
1769250308028,158,30,25.88644228364675,24.418392341052837,24.59047289002602
1769250308032,138,10,7.7502205640212125,5.6366436162306,6.491634001462662
1769250308036,122,-6,-8.73435343357912,-11.243809178525847,-9.966719986101978
1769250308040,111,-17,-19.453089994156823,-21.636681512127147,-20.685390089110072
1769250308044,108,-20,-23.27356985190384,-24.744198188740903,-24.531387934729583
1769250308048,111,-17,-21.835068406998595,-22.0084856394205,-23.129802338700525
1769250308052,114,-14,-18.023911790088597,-18.83563225582622,-19.348425660802427
1769250308056,117,-11,-14.278670896222852,-16.017722328473553,-15.61298714727718
1769250308060,119,-9,-11.725544304502048,-13.74482470941293,-13.048945150509248
1769250308064,120,-8,-10.35241765990952,-12.794336722828652,-11.65557142616887
1769250308068,122,-6,-9.69244820214179,-10.9044150458687,-10.98213637187952
1769250308072,123,-5,-9.356121453333069,-10.030910919377526,-10.648734390557856
1769250308076,122,-6,-9.15977352362692,-10.847429069366154,-10.468206111365944
1769250308080,122,-6,-9.029044962630843,-10.931564792773152,-10.354025407511838
1769250308084,122,-6,-8.919522979790596,-10.637225421370069,-10.252493394426008
1769250308088,123,-5,-8.800694321989804,-10.105458807722188,-10.133778025579549
1769250308092,123,-5,-8.63540904453586,-9.839761209863656,-9.967756263846104
1769250308096,123,-5,-8.35390210263148,-10.100106992002626,-9.689545015561396
1769250308100,123,-5,-7.883204535128123,-9.689281321847716,-9.225278133349988
1769250308104,124,-4,-7.2253809592452445,-8.908106900661172,-8.573750462428258
1769250308108,125,-3,-6.489679592519197,-7.901857312290508,-7.843091245668824
1769250308112,126,-2,-5.820550302527678,-7.0086759577438045,-7.179074836846793
1769250308116,126,-2,-5.288546853147178,-7.041730051557017,-6.65318953813772
1769250308120,126,-2,-4.8598266606411915,-6.699330245191767,-6.230665064902725
1769250308124,127,-1,-4.467530233071891,-6.0117013888791835,-5.843319372197415
1769250308128,127,-1,-4.092811855633501,-5.77023390677536,-5.472529492655837
1769250308132,128,0,-3.763826012041827,-5.200705806254528,-5.148106061045016
1769250308136,128,0,-3.485972896412564,-4.851617629155204,-4.87665119823821
1769250308140,128,0,-3.1984605860007447,-4.9396134876778905,-4.596715837494297
1769250308144,128,0,-2.819854549009861,-4.808647231100635,-4.225136069918681
1769250308148,129,1,-2.3350707182627843,-4.001630160038695,-3.746080766561288
1769250308152,130,2,-1.8178860378823192,-2.9934584518820544,-3.2342052331763984
1769250308156,130,2,-1.3548497032084956,-3.0674355891649574,-2.7771036482621696
1769250308160,130,2,-0.9530373033316109,-2.781828747444237,-2.381829549838624
1769250308164,131,3,-0.5304060849320067,-1.9820723436432233,-1.9657939441725532
1769250308168,131,3,0.0052200007831142,-1.9033570904371029,-1.436738836427036
1769250308172,132,4,0.6675218162064467,-1.054726928045381,-0.7813123778799116
1769250308176,133,5,1.3728392406227377,-0.0762667311352345,-0.0832483776126657
1769250308180,133,5,2.005477153041934,0.2481235080639225,0.5421511490799604
1769250308184,134,6,2.511213204439992,0.8771634836567701,1.0410491563728574
1769250308188,134,6,2.9424096132173285,1.2705773626630044,1.4657020226318775
1769250308192,135,7,3.419514174394889,1.6861363554322604,1.9361474756983903
1769250308196,135,7,4.03927196414133,2.233220861653429,2.5489079723453747
1769250308200,136,8,4.802273678353845,2.860877779142583,3.304521169322914
1769250308204,137,9,5.6209625130203476,4.230594417518646,4.115327636428676
1769250308208,138,10,6.400610756889276,4.91264144461402,4.886801721637924
1769250308212,138,10,7.113695607881857,4.961415794898224,5.592186528421835
1769250308216,139,11,7.795575080654318,6.037076517134365,6.267331703201895
1769250308220,140,12,8.475198833903942,6.914295522222582,6.940523257868678
1769250308224,140,12,9.114350184982236,7.232196455122436,7.572353971196399
1769250308228,141,13,9.60281932246618,7.807756399630532,8.052224956851386
1769250308232,141,13,9.80118880375596,8.098074077451372,8.241404339776473
1769250308236,141,13,9.598266906842198,7.863999891845512,8.029680829530864
1769250308240,140,12,8.952897723545167,7.038251204039122,7.376407542539224
1769250308244,139,11,7.904315291526643,6.102328203208288,6.320599697571415
1769250308248,138,10,6.555441765540661,4.855879781371315,4.964518968904196
1769250308252,136,8,5.043943308845305,3.1035620297860396,3.4453538059933737
1769250308256,135,7,3.510709131694571,1.769622249641924,1.904043346942812
1769250308260,133,5,2.070874625748278,0.1730165691094258,0.4559676902876406
1769250308264,132,4,0.795788176131446,-1.1444825293890486,-0.8275884553303405
1769250308268,131,3,-0.2871857187422195,-1.860328024963164,-1.919520278176488
1769250308272,130,2,-1.181923321789213,-3.2350773795004373,-2.8235710799290588
1769250308276,129,1,-1.9092309677437371,-3.895059544284583,-3.5599166099671833
1769250308280,129,1,-2.4921818776048226,-4.174694504005887,-4.151141753769183
1769250308284,128,0,-2.9348641216527485,-4.898599051361666,-4.601495787806388
1769250308288,128,0,-3.20299654345539,-5.039981109613167,-4.877311873502229
1769250308292,128,0,-3.2297197499249872,-5.174024017441455,-4.912286471379769
1769250308296,128,0,-2.955573272977102,-4.863495984615886,-4.647099974847588
1769250308300,129,1,-2.3799697963277344,-4.340302824284654,-4.08086025237473
1769250308304,129,1,-1.5844891874656613,-3.692238829492141,-3.2947195676434564
1769250308308,131,3,-0.7028795936224741,-2.324008172751999,-2.4222312653301223
1769250308312,131,3,0.146707146187613,-1.872799344140434,-1.581561459657718
1769250308316,132,4,0.9163358914929156,-1.188828549937214,-0.8206254575575618
1769250308320,133,5,1.6267556753562342,-0.0658769186379566,-0.1185956041493012
1769250308324,133,5,2.314611273003125,0.0253867853376874,0.5610616896696259
1769250308328,134,6,2.975687524019197,0.8920115137744098,1.2136332792688855
1769250308332,135,7,3.5512312732994498,1.9572017266349755,1.7798360372750723
1769250308336,135,7,3.9606998186359568,1.9111363499829317,2.179368158356601
1769250308340,135,7,4.13931633387735,1.8410850201021625,2.3484415184876073
1769250308344,135,7,4.047615871451045,2.050757357094449,2.248017421023478
1769250308348,135,7,3.667216239626307,1.856728672886998,1.8589010641538173
1769250308352,134,6,3.0066975210073417,0.979039889462177,1.188903918996015
1769250308356,133,5,2.1074845366170187,-0.1102986183056371,0.2800077544930688
1769250308360,132,4,1.0334039731010094,-1.1975140953711585,-0.8029177880959515
1769250308364,131,3,-0.1406437006360934,-1.9212891593399353,-1.9850414919921489
1769250308368,130,2,-1.3239413778353888,-3.222493824126728,-3.176713229997374
1769250308372,128,0,-2.411491340351654,-4.915338380546971,-4.273597941823891
1769250308376,128,0,-3.3207294302755255,-5.247912198955261,-5.19280180020416
1769250308380,127,-1,-4.0432551368266445,-6.084746704008098,-5.925189595920953
1769250308384,126,-2,-4.6579582605779875,-7.087425922860442,-6.549241673425657
1769250308388,126,-2,-5.280270096567359,-7.056187583415497,-7.18066948560614
1769250308392,125,-3,-5.977233376125459,-8.099500943258747,-7.8873032308511615
1769250308396,124,-4,-6.709264596583379,-9.069402510380057,-8.62993586078003
1769250308400,124,-4,-7.3440560736963185,-9.305385245213394,-9.275085965349891
1769250308404,123,-5,-7.73699564366205,-9.910546119048686,-9.675478342138211
1769250308408,123,-5,-7.826029753340856,-10.2342421028371,-9.76749053763531
1769250308412,123,-5,-7.677215385487889,-9.938075475619897,-9.62051887038357
1769250308416,124,-4,-7.447114837126272,-9.215414699354508,-9.399405100771382
1769250308420,124,-4,-7.292309014502584,-9.24553611193942,-9.266792796390316
1769250308424,123,-5,-7.295901252571754,-9.94527972456806,-9.30064591221412
1769250308428,123,-5,-7.417295973586365,-10.296528879717576,-9.444195760633203
1769250308432,123,-5,-7.364860926174469,-9.791396791673437,-9.391346020907438
1769250308436,126,-2,-6.351792953397017,-7.454559835718386,-8.3569414026427
1769250308440,129,1,-2.98670492718704,-3.960679923758419,-4.968528288603898
1769250308444,135,7,4.250564596581498,1.6960916343025847,2.272151872842512
1769250308448,145,17,15.822746002342123,12.062500154242628,13.819454318510507
1769250308452,159,31,29.896577391223143,25.8687934289632,27.84952613450689
1769250308456,173,45,42.214314140805165,39.82856226007732,40.122904400456434
1769250308460,181,53,47.729403332815544,47.79526343183815,45.60890920522003
1769250308464,176,48,43.30524934031581,42.80020945391708,41.179072961214345
1769250308468,160,32,29.708875637505855,26.92215514642499,27.599637583614964
1769250308472,141,13,11.426552980172946,7.919387173922775,9.346303677649589
1769250308476,124,-4,-5.642579490433224,-9.20960910965362,-7.700026897187725
1769250308480,113,-15,-17.07599058405178,-20.08060681286268,-19.133872329765374
1769250308484,110,-18,-21.60825099679798,-23.265722584696785,-23.694569908201796
1769250308488,111,-17,-20.839927915782127,-22.00007442857806,-22.971118528535772
1769250308492,114,-14,-17.59173910940288,-19.244865111164877,-19.763229621862955
1769250308496,116,-12,-14.218530949264409,-17.09595122736323,-16.40860404439798
1769250308500,118,-10,-11.84831388437608,-15.236825503481814,-14.032791263177844
1769250308504,120,-8,-10.593843495729706,-13.079727195494398,-12.761514330208293
1769250308508,121,-7,-10.131739505572623,-12.217387233900622,-12.289547067912254
1769250308512,121,-7,-10.08780218317313,-12.063162676245856,-12.252648711571725
1769250308516,121,-7,-10.1296587077338,-12.319854954866168,-12.314491096637816
1769250308520,120,-8,-9.98427547320434,-13.022266185331327,-12.19010965411854
1769250308524,121,-7,-9.526482382782053,-12.281276892011986,-11.745600166811585
1769250308528,122,-6,-8.852997004646198,-11.00457914900487,-11.078120869336216
1769250308532,123,-5,-8.202477398918596,-10.33797706735828,-10.43241921113363
1769250308536,123,-5,-7.755346142314029,-10.049365411383384,-9.993094412877602
1769250308540,123,-5,-7.499521350078802,-10.34118786436748,-9.747130929482772
1769250308544,123,-5,-7.281016891077361,-9.944784571571738,-9.537628030747555
1769250308548,124,-4,-6.963830830359427,-9.33579632538245,-9.227903845102992
1769250308552,124,-4,-6.532904476755925,-9.067470868560235,-8.804776091868526
1769250308556,125,-3,-6.064437915761822,-8.291956699420954,-8.345965086300373
1769250308560,125,-3,-5.629369682657222,-8.18561241268719,-7.921514194246676
1769250308564,125,-3,-5.237773480254823,-8.031719733837472,-7.539297586634422
1769250308568,126,-2,-4.858903194320446,-7.320113130914432,-7.1677760544959925
1769250308572,126,-2,-4.46577501346303,-7.051972019707943,-6.781559748231949
1769250308576,127,-1,-4.048318909501596,-6.377201990636216,-6.3725693551190785
1769250308580,127,-1,-3.6003488759793747,-6.080889722949108,-5.934499382601621
1769250308584,127,-1,-3.1194765286603423,-6.163065545061866,-5.463000654556465
1769250308588,128,0,-2.621602573168492,-5.186116497975212,-4.97290107827267
1769250308592,129,1,-2.131291118478459,-4.2076349069024435,-4.489903431752655
1769250308596,129,1,-1.6444307184829792,-4.25126572884311,-4.011347254180786
1769250308600,129,1,-1.119598010895933,-4.209580407015626,-3.4955624158894363
1769250308604,130,2,-0.5279921964139835,-3.0478481175472627,-2.9126041449559947
1769250308608,131,3,0.0951157798874049,-2.3078773407980746,-2.297524072806479
1769250308612,131,3,0.6665410149890758,-2.11030302186521,-1.7342067874401366
1769250308616,132,4,1.125632241879759,-1.3459858572570789,-1.283653679290247
1769250308620,132,4,1.4854284822386536,-1.1655352567788837,-0.9323672174907168
1769250308624,132,4,1.8184173119413856,-1.0513939288002805,-0.6072727217102591
1769250308628,133,5,2.1977883908866436,-0.3788244782322651,-0.2352159982823378
1769250308632,133,5,2.6508287322407105,0.0231757852366638,0.2104218766334238
1769250308636,134,6,3.16013034007523,0.4318733344705521,0.7115745159103621
1769250308640,134,6,3.699134220589113,1.105006013186145,1.2416726342291886
1769250308644,135,7,4.260964077634356,1.6308942588585018,1.794583502302041
1769250308648,135,7,4.854557322355071,1.9263623551639335,2.3801629794080315
1769250308652,136,8,5.480314143109186,2.7507813002063166,2.9989884697886904
1769250308656,137,9,6.119385922204602,3.611307955913612,3.631367907313392
1769250308660,137,9,6.748863134434399,4.016858483754586,4.253432096999005
1769250308664,138,10,7.354173057377103,4.597634608253563,4.85058353176884
1769250308668,138,10,7.908909309379478,5.053847413924782,5.397131449929515
1769250308672,139,11,8.339273630819635,5.523230328049441,5.819633695164713
1769250308676,139,11,8.522320746210202,5.8901279526358845,5.994762693142288
1769250308680,139,11,8.337274908106249,5.6933601811656835,5.801502152918419
1769250308684,138,10,7.731425301111147,4.921404473632661,5.1877601106938975
1769250308688,137,9,6.747587965340845,3.7259840768179857,4.197050752283622
1769250308692,136,8,5.503755345802544,2.8169166901223104,2.9469073531141703
1769250308696,135,7,4.155311122398015,1.613525306644501,1.5915399786590996
1769250308700,133,5,2.858188823146045,-0.0582070110050985,0.286736108867152
1769250308704,132,4,1.7275624550314836,-1.3116190907390166,-0.8512234689027585
1769250308708,131,3,0.8048393837586925,-2.071301628245557,-1.7805146254133566
1769250308712,131,3,0.0683898446712114,-2.38465387053367,-2.524052093889937
1769250308716,130,2,-0.5146940100829318,-3.20336678051258,-3.1158472477251102
1769250308720,129,1,-0.9552359818843952,-4.225064248866261,-3.565590955995497
1769250308724,129,1,-1.2623741596501277,-4.184533173746294,-3.880144981957595
1769250308728,129,1,-1.4683418585076675,-4.171854261774265,-4.0912210409902645
1769250308732,129,1,-1.5935817746638723,-4.351992014401432,-4.221205978350069
1769250308736,129,1,-1.5799866189753693,-4.164766758526779,-4.214039976009201
1769250308740,129,1,-1.2924845385800616,-4.34104039627781,-3.934529331555603
1769250308744,129,1,-0.6295388345547439,-4.012835108536921,-3.2794898846434952
1769250308748,131,3,0.3515634263978884,-2.421107842832257,-2.3054338596031028
1769250308752,132,4,1.4325607310240165,-1.0532025014642166,-1.2314031331468969
1769250308756,133,5,2.3745490447436133,-0.5026718852172647,-0.2968632576461929
1769250308760,133,5,3.069848969528908,0.028040428279092,0.3913587513056007
1769250308764,134,6,3.569682955807766,0.5702837948968291,0.885440747311081
1769250308768,134,6,3.9860497494857343,0.984068198208389,1.2967597756693028
1769250308772,135,7,4.375310021941717,1.5549955623345006,1.6800717369302562
1769250308776,135,7,4.695865726621018,1.8738628672722095,1.9932129746799776
1769250308780,135,7,4.847827696342338,1.6967308901720743,2.137351054446605
1769250308784,135,7,4.746792974320318,1.813610528401989,2.0292729185477203
1769250308788,135,7,4.381106354637785,1.7922508029751665,1.6574152115940786
1769250308792,134,6,3.818177746282848,0.6750917977852597,1.0886997790832402
1769250308796,133,5,3.1524495686686813,-0.1617840066735292,0.4173072705467064
1769250308800,133,5,2.435815987336961,-0.3221897257967843,-0.3051337488660088
1769250308804,132,4,1.656000838988123,-1.1577426280905847,-1.0913554694181735
1769250308808,131,3,0.7793625216605551,-2.2694967468213156,-1.9749950823056517
1769250308812,130,2,-0.1954266462534533,-3.2502433557326764,-2.9566640584811537
1769250308816,129,1,-1.2269086103833184,-4.228379310437965,-3.994291964069121
1769250308820,128,0,-2.2604661005328515,-5.25087051854008,-5.033367842786259
1769250308824,127,-1,-3.260351198434905,-6.265765951633089,-6.038548061769262
1769250308828,126,-2,-4.219965811854914,-7.14744831479496,-7.003480603395014
1769250308832,125,-3,-5.1501867187557595,-8.401012058996002,-7.939554469411018
1769250308836,124,-4,-6.053419146225602,-9.028074124430026,-8.850187288827573
1769250308840,124,-4,-6.896293051657769,-9.488161266920638,-9.702061325500845
1769250308844,122,-6,-7.606330438027959,-11.019354525706405,-10.42002065437118
1769250308848,122,-6,-8.107749990731644,-11.425740840911228,-10.924287474444302
1769250308852,122,-6,-8.36651735669209,-11.103501053666552,-11.180234747090992
1769250308856,122,-6,-8.398854192360561,-11.318070449474249,-11.209920614457555
1769250308860,122,-6,-8.253438725233995,-11.201691645343626,-11.071130206080024
1769250308864,122,-6,-8.020358971929252,-11.29955041424431,-10.858345931316052
1769250308868,122,-6,-7.854969586450379,-11.206740248752018,-10.720198031236851
1769250308872,122,-6,-7.897228401697343,-11.259470769742835,-10.780736149302474
1769250308876,122,-6,-7.9840336561337955,-11.210978296574146,-10.863228424610336
1769250308880,124,-4,-7.267725210789793,-9.245951205105008,-10.121493706977637
1769250308884,127,-1,-4.132714790790713,-6.297116342502756,-6.958358584400701
1769250308888,133,5,3.1634435322722885,-0.2238115060448029,0.3462170454975397
1769250308892,144,16,15.149054908769552,10.815256059166115,12.310989831532805
1769250308896,158,30,29.87377133302494,24.670978101006423,26.994680227745285
1769250308900,173,45,42.878448201683106,39.96285369271662,39.95733382048393
1769250308904,182,54,48.96046244628063,48.399982738637235,46.01333895452814
1769250308908,176,48,44.93813081466455,43.07640215724329,41.98953571674773
1769250308912,162,34,31.613539615439112,28.41349775406115,28.686843074750364
1769250308916,142,14,13.505699051325935,9.067083529674056,10.613018790683084
1769250308920,125,-3,-3.5103306604885987,-8.425709616059077,-6.375806015140124
1769250308924,115,-13,-15.071193206601713,-18.12314194762321,-17.933793656500892
1769250308928,111,-17,-19.932720894945835,-22.283403502695407,-22.821116878349663
1769250308932,111,-17,-19.634411070235696,-22.269671664183345,-22.56429503374839
1769250308936,114,-14,-16.886417209419562,-19.20056996039782,-19.851639241097395
1769250308940,116,-12,-13.950066373553025,-17.30793371241795,-16.928307397723685
1769250308944,117,-11,-11.90597829958791,-16.171159515037765,-14.874008862759103
1769250308948,119,-9,-10.853221314988348,-14.244141426732154,-13.801015887951454
1769250308952,120,-8,-10.476457668889688,-13.2987065597907,-13.411242178144558
1769250308956,120,-8,-10.432363412385731,-13.167752691027529,-13.37069482941699
1769250308960,120,-8,-10.437063629194046,-13.404961635113027,-13.39158159368348
1769250308964,119,-9,-10.264435632889526,-14.018698023880866,-13.235880794443757
1769250308968,120,-8,-9.814671146838329,-13.405100412114695,-12.79480334509313
1769250308972,121,-7,-9.18004665646426,-12.081544540839786,-12.161117386784532
1769250308976,122,-6,-8.569270205573746,-11.42389211049004,-11.55038488570593
1769250308980,122,-6,-8.121528857821243,-11.160212616146303,-11.10677387000294
1769250308984,122,-6,-7.797082733601058,-11.24802296526624,-10.78931968345166
1769250308988,122,-6,-7.456958449774128,-11.188414164877678,-10.454828757029528
1769250308992,123,-5,-7.029496362479138,-10.23153102421647,-10.030229609962898
1769250308996,124,-4,-6.571161976019076,-9.330849263442987,-9.574695475408882
1769250309000,124,-4,-6.168818643379006,-9.211753317669874,-9.177815351478433
1769250309004,124,-4,-5.821897277800004,-9.238636712156367,-8.838050635018902
1769250309008,124,-4,-5.450124649849982,-9.144934577853563,-8.47192437564001
1769250309012,125,-3,-5.000771012687592,-8.29729137829885,-8.02556879947245
1769250309016,126,-2,-4.5088202042159224,-7.229115626452416,-7.536155428460889
1769250309020,126,-2,-4.040493191415675,-7.340647342433554,-7.072328900662605
1769250309024,126,-2,-3.604646383963489,-7.089810956204156,-6.642653767658839
1769250309028,127,-1,-3.1444773244934963,-6.28826011808791,-6.1880975212250355
1769250309032,127,-1,-2.610316175663446,-6.155738661125225,-5.657740034446546
1769250309036,128,0,-2.019729333224228,-5.343326445049934,-5.070239848466597
1769250309040,129,1,-1.436818362868877,-4.2383851787798745,-4.491571446019389
1769250309044,129,1,-0.9025487326929552,-4.174869199215759,-3.962877521620609
1769250309048,129,1,-0.4033115502643298,-4.2026133935870185,-3.468873955619024
1769250309052,130,2,0.0912603833505856,-3.2381664876105103,-2.9781474665638115
1769250309056,131,3,0.5829689366660444,-2.2399372194070577,-2.4899445088668157
1769250309060,131,3,1.051739231604269,-2.3484488817656,-2.0256973187464267
1769250309064,131,3,1.4894386804967152,-2.0347153717775965,-1.593105258844833
1769250309068,132,4,1.906232337184072,-1.3544229847814582,-1.1806384553699585
1769250309072,132,4,2.3115213998027357,-1.0828097228476563,-0.7788262204123098
1769250309076,133,5,2.7080141417816095,-0.3666112200997089,-0.3862996078031022
1769250309080,133,5,3.1032728384916544,-0.2335021214404435,0.0037536424022772
1769250309084,133,5,3.5087279725296767,-0.1016440407489454,0.4037115476772674
1769250309088,134,6,3.9204289651480617,0.6682999592447079,0.8110009407474532
1769250309092,134,6,4.3166397964206435,0.9458514810030492,1.2039300963920878
1769250309096,135,7,4.692750290647722,1.573281881122051,1.5767356365267484
1769250309100,135,7,5.094189256260105,1.8918338245578703,1.9741270207852883
1769250309104,135,7,5.589406391672954,1.747597240216757,2.4649476553114864
1769250309108,136,8,6.189355050378605,2.831366987156991,3.060590549277599
1769250309112,137,9,6.79281761678988,3.79960783918382,3.6595007040687824
1769250309116,137,9,7.219006916488128,3.7079709084446737,4.080539773043828
1769250309120,137,9,7.300710628116855,3.8250238898078472,4.156972717775665
1769250309124,137,9,6.963748097300589,3.773935605088044,3.81542726405396
1769250309128,136,8,6.2482296741661445,2.8331684857008836,3.0963017370944663
1769250309132,135,7,5.274800224237599,1.783444591338747,2.1199109510475576
1769250309136,134,6,4.185910903632093,0.7679762283092622,1.0280014607767138
1769250309140,133,5,3.099919318004471,-0.2295448264859669,-0.0618785597437914
1769250309144,132,4,2.0979641227871184,-1.1356297829681647,-1.0688742180576951
1769250309148,131,3,1.2285823424884932,-2.2964570563316227,-1.943692839487668
1769250309152,130,2,0.505414763349048,-3.033716084564265,-2.6715316005192222
1769250309156,130,2,-0.0970616711880305,-3.433454182728612,-3.2777039272557027
1769250309160,129,1,-0.624096505378438,-3.965738680612613,-3.808502468037158
1769250309164,129,1,-1.098259550680679,-4.412566704744477,-4.287442415315025
1769250309168,128,0,-1.4923840415885272,-5.018442450817294,-4.686862433023013
1769250309172,128,0,-1.746338934925852,-5.281994901872301,-4.945146581582418
1769250309176,128,0,-1.8062490230230344,-5.210113191363427,-5.0077786200721714
1769250309180,128,0,-1.640309335023975,-5.081418933815933,-4.844192974170304
1769250309184,129,1,-1.2215483323766216,-4.386874764337855,-4.429343176092659
1769250309188,129,1,-0.5212469292814922,-3.9234430879069455,-3.7348938046665454
1769250309192,130,2,0.4476705021040974,-3.493474972209028,-2.772103415710254
1769250309196,131,3,1.5713496566262588,-1.867499865810244,-1.653109585834435
1769250309200,133,5,2.6461797742081403,-0.4667641055145486,-0.5816774967339393
1769250309204,133,5,3.488037926484169,0.0407576718028663,0.2566443663586635
1769250309208,134,6,4.049474366185574,0.6746233850063423,0.8137175072208924
1769250309212,134,6,4.426395834261166,0.842740406417366,1.1861458638528743
1769250309216,134,6,4.742547494844191,0.9143551485477156,1.4984646895906026
1769250309220,135,7,5.023886615624871,1.673242427590628,1.7762550894199305
1769250309224,135,7,5.180378613989971,2.04127780272582,1.9284714713886553
1769250309228,135,7,5.097183325919405,1.575307251077343,1.8401162922612793
1769250309232,134,6,4.73121356010218,1.026146656230421,1.46897987942125
1769250309236,134,6,4.125252482692279,0.6940119736301202,0.8584716489092536
1769250309240,133,5,3.3500211813654586,-0.0551236864660888,0.0790937299624507
1769250309244,132,4,2.4437285308175416,-1.1855245194016613,-0.8312384635823853
1769250309248,131,3,1.401273401221673,-2.2250564259901866,-1.8776064531476109
1769250309252,130,2,0.2190890307074195,-3.119791818408748,-3.063819875346543
1769250309256,129,1,-1.0433275995667102,-4.201678325051356,-4.330850276457298
1769250309260,127,-1,-2.251803716066944,-6.068646457992129,-5.544297565603298
1769250309264,126,-2,-3.2691113440908577,-7.187943867216116,-6.566008418167456
1769250309268,126,-2,-4.053573275784219,-7.1754676148183805,-7.353939757170603
1769250309272,125,-3,-4.686139056247711,-8.186642418276787,-7.989944792666849
1769250309276,124,-4,-5.296634403906412,-9.108380663499672,-8.605380777141828
1769250309280,124,-4,-5.957057983703102,-9.116846117460389,-9.273073156513952
1769250309284,123,-5,-6.630500003555012,-10.130919933484728,-9.954766965640587
1769250309288,122,-6,-7.209623401564286,-11.207791042442985,-10.539350404042189
1769250309292,122,-6,-7.602384267651039,-11.155713634010995,-10.931349734831004
1769250309296,122,-6,-7.782257047216087,-11.109151844315074,-11.105598402446171
1769250309300,122,-6,-7.767674461288541,-11.086731750756844,-11.088043112032008
1769250309304,122,-6,-7.592258205255524,-11.109111883371918,-10.92130251780862
1769250309308,122,-6,-7.339436145947849,-11.255907983675598,-10.691074442735175
1769250309312,122,-6,-7.1911483623647205,-11.064207156429616,-10.569740034588351
1769250309316,122,-6,-7.31950269302872,-11.214641216700482,-10.712186138417833
1769250309320,122,-6,-7.522492381075384,-10.910980463285965,-10.90453939997695
1769250309324,124,-4,-6.796180613078819,-9.25974836915692,-10.14835890611469
1769250309328,127,-1,-3.3261621376043293,-6.098940572254211,-6.650797027941783
1769250309332,134,6,4.67966546185146,0.8079824716611155,1.3584720756318784
1769250309336,145,17,17.48572559126264,11.926445693774102,14.138366126051816
1769250309340,160,32,32.62010458922727,27.0314330465101,29.22992913620959
1769250309344,176,48,45.17380191154609,42.80270434790217,41.744173609207195
1769250309348,182,54,49.95974383706721,48.88543190010395,46.50937553439946
1769250309352,175,47,44.387226507561536,41.709484366943,40.941232755473095
1769250309356,159,31,30.091366203993175,26.063907517429023,26.67158737015624
1769250309360,140,12,12.112737851710154,6.8045771193982905,8.727538660973671
1769250309364,124,-4,-3.8118116753835096,-8.819522147682477,-7.173939335954203
1769250309368,116,-12,-14.005862761534878,-17.41669069036157,-17.371933180464637
1769250309372,112,-16,-17.99879743239961,-20.866396226466374,-21.395976994353752
1769250309376,113,-15,-17.72194903045655,-20.347964474354804,-21.160983623288317
1769250309380,114,-14,-15.726688724789597,-18.818368939656544,-19.196046822599072
1769250309384,115,-13,-13.761164326781188,-18.192174865987138,-17.235971342302577
1769250309388,116,-12,-12.409264737578996,-17.03226157745045,-15.868453862543245
1769250309392,118,-10,-11.555717011676258,-15.158111890401727,-14.995178627266544
1769250309396,119,-9,-10.974559288394586,-14.084972439578548,-14.407070320388325
1769250309400,119,-9,-10.570872726750054,-14.031876883579754,-14.01385934029966
1769250309404,119,-9,-10.31428359667378,-14.012265740471875,-13.776242953483392
1769250309408,119,-9,-10.143992455981708,-14.136845402447236,-13.620559742198129
1769250309412,119,-9,-9.987173378333232,-14.014713538635164,-13.468273895743817
1769250309416,120,-8,-9.811973658159143,-13.194237803465787,-13.291806163085733
1769250309420,120,-8,-9.607917595457408,-12.90559184544468,-13.088485671255397
1769250309424,120,-8,-9.32412557943741,-13.142358078458027,-12.810657655776204
1769250309428,120,-8,-8.875886279062566,-12.948357960762769,-12.37062602340214
1769250309432,121,-7,-8.236118955166106,-12.169110741529206,-11.737265535952575
1769250309436,122,-6,-7.495775135102606,-11.000407414054148,-11.001265581961048
1769250309440,123,-5,-6.800115595033687,-10.07628336210697,-10.310428184299615
1769250309444,123,-5,-6.224489561799396,-9.97395197673818,-9.74114997611724
1769250309448,123,-5,-5.732745362023031,-10.052421390876477,-9.255572152561973
1769250309452,124,-4,-5.25452617994282,-9.064470851006927,-8.78189679002704
1769250309456,125,-3,-4.771474582932445,-8.017362127375018,-8.302844049284591
1769250309460,125,-3,-4.312503957164784,-8.092952046823216,-7.849163052082201
1769250309464,125,-3,-3.890717548591848,-7.868650282759759,-7.433938054114407
1769250309468,126,-2,-3.475380963153212,-7.194158640167929,-7.024942946694299
1769250309472,126,-2,-3.0234794867288377,-6.822373875681925,-6.578377709275291
1769250309476,127,-1,-2.520577734443698,-6.278932392222339,-6.0804269005370415
1769250309480,127,-1,-1.9875296157674656,-5.739968311319995,-5.552821741656036
1769250309484,128,0,-1.4567972811478471,-5.254150635349535,-5.028112530068004
1769250309488,128,0,-0.9464536448944838,-4.7290833249200075,-4.523813719008474
1769250309492,129,1,-0.4517817160952899,-4.293182385653434,-4.034771250797069
1769250309496,129,1,0.0450098913180532,-3.7358575013080046,-3.5432993831599258
1769250309500,130,2,0.5584999109679563,-3.260384072567554,-3.0352201473038374
1769250309504,130,2,1.0881743936296502,-2.716365021204341,-2.5112625671191893
1769250309508,131,3,1.6154594461113765,-2.208519974831326,-1.9899107242887588
1769250309512,131,3,2.11023752905407,-1.8236913778320345,-1.501169106317468
1769250309516,132,4,2.545227038305333,-1.0978195490649931,-1.072339973941581
1769250309520,132,4,2.911075538968638,-0.9362584927604294,-0.7127373284877865
1769250309524,132,4,3.2224616256526044,-0.9355471133780452,-0.4074813539558404
1769250309528,133,5,3.514936754337847,-0.0385782022947842,-0.1208101574024
1769250309532,133,5,3.8397182882994825,0.1234534937173439,0.1986457064939184
1769250309536,133,5,4.25478648102806,-0.0689472586947657,0.6088010203865504
1769250309540,134,6,4.806331103900489,1.1296401385712134,1.1551706194300495
1769250309544,135,7,5.5061949521658,1.9921570654906369,1.8486813958427737
1769250309548,135,7,6.311702756934038,2.070973108421404,2.6467682250248528
1769250309552,136,8,7.109004829021419,3.076219831335506,3.436903712804958
1769250309556,137,9,7.720445812079302,3.9905874173861138,4.04235428424792
1769250309560,137,9,7.964917427565103,4.138518086168752,4.281426540404263
1769250309564,137,9,7.749236898960739,3.9902595340510487,4.059850532701756
1769250309568,136,8,7.113693241908631,3.1163215548732444,3.4178480311871065
1769250309572,135,7,6.184566994446278,2.068373646697739,2.482521800381849
1769250309576,134,6,5.080371901754513,1.04346983092831,1.3726532775456084
1769250309580,133,5,3.86707208724214,0.1288124859935222,0.1534125610592629
1769250309584,132,4,2.5981658827434613,-0.9597878511624258,-1.1222223082112963
1769250309588,130,2,1.3743850506279545,-2.9040307723652683,-2.3526542026495605
1769250309592,129,1,0.3389511040985377,-3.8650020666784406,-3.393579457497266
1769250309596,129,1,-0.3913343634544848,-3.986795161328322,-4.12877265029992
1769250309600,128,0,-0.787827995645478,-4.786680560141315,-4.531384904502749
1769250309604,128,0,-0.917535696217899,-5.009355345629379,-4.669141989622517
1769250309608,128,0,-0.9071307037234376,-4.8082193736130945,-4.667395689301001
1769250309612,128,0,-0.8871938414180015,-4.935018109181687,-4.654792044577107
1769250309616,128,0,-0.9290230977739354,-4.875089248121072,-4.701943499792115
1769250309620,128,0,-0.9958021000527728,-4.834912177933261,-4.772972062533383
1769250309624,128,0,-0.9459334818139707,-4.946454059240774,-4.727775621214175
1769250309628,128,0,-0.60888310855623,-4.794119707609604,-4.396713651466361
1769250309632,129,1,0.1008099765084915,-3.953889216179357,-3.694313548010404
1769250309636,130,2,1.1096571695489323,-2.7756069286241143,-2.6934674608092513
1769250309640,131,3,2.210601939101899,-1.8997549331070271,-1.6004710081877245
1769250309644,132,4,3.174429861051501,-0.8363778694343513,-0.6439872078382791
1769250309648,133,5,3.8712372412755154,0.1483731751208337,0.0463023551594221
1769250309652,133,5,4.319094113598988,0.1041959677578949,0.4885307703655437
1769250309656,133,5,4.63030272301985,0.2503498739363365,0.794804536320977
1769250309660,134,6,4.905473391332441,1.0936005922489342,1.064938678461843
1769250309664,134,6,5.161687949316023,1.2516026236034952,1.3149802756261804
1769250309668,134,6,5.334190631384756,1.0751293895956169,1.4798239245658928
1769250309672,134,6,5.321991799849078,1.236086402378553,1.4590380368329412
1769250309676,134,6,5.033478671100665,1.141165388107,1.1619816355659438
1769250309680,133,5,4.4148069009655915,0.2762508579562439,0.5358808430131141
1769250309684,132,4,3.463658233541563,-0.8962407747147418,-0.4208490885435179
1769250309688,131,3,2.238990298845991,-1.7191108572301794,-1.6497508814741957
1769250309692,130,2,0.8714972757939876,-2.9472240009632467,-3.021892527798391
1769250309696,128,0,-0.4496906248918311,-4.617613203059856,-4.3495864051097355
1769250309700,127,-1,-1.5483211604005884,-5.9111100108998755,-5.456354453563408
1769250309704,126,-2,-2.366989775866992,-6.654828015289363,-6.28346425346402
1769250309708,126,-2,-3.01598984091764,-6.9152751470910685,-6.940158131625935
1769250309712,125,-3,-3.6996031607090663,-7.710103137621136,-7.63042565377255
1769250309716,124,-4,-4.565840811318881,-8.809869863500118,-8.502624816015988
1769250309720,123,-5,-5.5975588393659645,-9.653294768260569,-9.540634697123227
1769250309724,122,-6,-6.62288585343026,-10.883182265291994,-10.57368080340628
1769250309728,121,-7,-7.426499812067718,-11.61853744208956,-11.38585058949206
1769250309732,121,-7,-7.879166905841918,-11.98353873277649,-11.84483155909044
1769250309736,120,-8,-8.002191800556211,-12.455164564592875,-11.969145794931364
1769250309740,121,-7,-7.931096532733982,-11.976423019134169,-11.896616024487384
1769250309744,121,-7,-7.816003927192272,-11.488550809127032,-11.785535397956842
1769250309748,121,-7,-7.753515259385801,-11.983945732695412,-11.739835943623712
1769250309752,120,-8,-7.811527520425025,-12.570923323405838,-11.824887300764823
1769250309756,120,-8,-8.063320226888958,-12.79874149204656,-12.10007569142055
1769250309760,120,-8,-8.440401172829176,-12.613063842484154,-12.481366783940524
1769250309764,121,-7,-8.358025257323192,-11.745921662561816,-12.380456627486184
1769250309768,123,-5,-6.431420307566087,-9.721484509584972,-10.42631871489002
1769250309772,128,0,-0.8139458103348365,-4.735684422180876,-4.794444333556842
1769250309776,137,9,9.627436146590831,4.388195363918122,5.633980135316179
1769250309780,150,22,23.860308279292415,17.29762735972347,19.82976686924045
1769250309784,166,38,38.13015451887844,33.375972020127676,34.05484658665792
1769250309788,178,50,47.181985655270566,45.261097004147224,43.07266751100488
1769250309792,177,49,46.892320970532765,44.22979980086049,42.77200777792143
1769250309796,165,37,36.68156398297106,32.49032527673548,32.575701898972646
1769250309800,148,20,20.007324631862517,15.102956289010365,15.93221980586402
1769250309804,129,1,2.550622641886368,-3.2958052519476944,-1.4957975190996762
1769250309808,117,-11,-10.683333991524735,-15.99647345629037,-14.721652085438274
1769250309812,111,-17,-17.499131058487876,-21.296553172978424,-21.55727514116895
1769250309816,111,-17,-18.750572980756633,-21.927770332042932,-22.84777419635359
1769250309820,112,-16,-16.945602836615762,-20.457228171288975,-21.08184185546109
1769250309824,114,-14,-14.455719461259545,-18.709227086497375,-18.61322116532137
1769250309828,115,-13,-12.506733281324252,-17.6015387801098,-16.662039549555033
1769250309832,116,-12,-11.266803452410686,-16.5173297681832,-15.40543163501061
1769250309836,118,-10,-10.495895739880668,-14.73702903392414,-14.62022704919892
1769250309840,119,-9,-10.026904639150114,-13.517519308190632,-14.152190183829196
1769250309844,119,-9,-9.80013841178523,-13.702912604140913,-13.94168774745747
1769250309848,118,-10,-9.70233892733276,-14.483594508904163,-13.86419107806289
1769250309852,118,-10,-9.548802834762046,-14.587801439230804,-13.723278002635132
1769250309856,119,-9,-9.23213706407762,-13.576812043116451,-13.409447690877888
1769250309860,120,-8,-8.809372705799177,-12.636545794412775,-12.986822365611896
1769250309864,120,-8,-8.400720985753132,-12.538446540023656,-12.582741780325886
1769250309868,120,-8,-8.032558254292649,-12.59440885972413,-12.223679426221942
1769250309872,120,-8,-7.617895938109744,-12.384178089582209,-11.817791132126322
1769250309876,121,-7,-7.07905647850506,-11.74799547728044,-11.284615438679792
1769250309880,122,-6,-6.446748903420808,-10.375121434861438,-10.656981736644916
1769250309884,123,-5,-5.825127851258428,-9.774645776408128,-10.042076831695889
1769250309888,122,-6,-5.292221073694737,-10.279929237447346,-9.517457529686231
1769250309892,123,-5,-4.861907774309763,-9.622577200639585,-9.094266875305404
1769250309896,124,-4,-4.517772843191812,-8.487930089708627,-8.755313842531299
1769250309900,124,-4,-4.237168887880938,-8.514360128818616,-8.479821491328916
1769250309904,124,-4,-3.9784714057710913,-8.654904919163759,-8.227581051926212
1769250309908,124,-4,-3.6816990833439345,-8.230426452964146,-7.937874939720249
1769250309912,125,-3,-3.3038407686363853,-7.721546874444748,-7.566405772747327
1769250309916,125,-3,-2.8451488114029657,-7.226649256586513,-7.1134080077397694
1769250309920,126,-2,-2.332270713242741,-6.788684354210379,-6.606477401777855
1769250309924,126,-2,-1.7825418901342722,-6.263559987499658,-6.063446006475585
1769250309928,127,-1,-1.1943833495567358,-5.575732282155098,-5.48214170433426
1769250309932,127,-1,-0.5732221224185101,-5.3232707189734985,-4.867073054262168
1769250309936,128,0,0.0431256145471112,-4.542899498923108,-4.25606543661873
1769250309940,129,1,0.5998874721497278,-3.424998785994566,-3.704911362225316
1769250309944,129,1,1.0725798830347162,-3.536692806239162,-3.238707400010962
1769250309948,129,1,1.4896181278316694,-3.2578961029323112,-2.8283066377413597
1769250309952,130,2,1.8988152228592976,-2.557118124311292,-2.424865789719054
1769250309956,130,2,2.3182205195116223,-2.2815631312245057,-2.010514816024012
1769250309960,131,3,2.730340106035766,-1.5654902556347232,-1.6038864974779137
1769250309964,131,3,3.119742474237684,-1.3766123538261468,-1.2209519744085535
1769250309968,131,3,3.5019030769988397,-1.287482410779743,-0.8455212025670091
1769250309972,132,4,3.910962893349364,-0.5470318063103168,-0.4424432446975008
1769250309976,132,4,4.368853960068566,-0.141663673758166,0.0104162916982133
1769250309980,133,5,4.873778513997613,0.2815146773370793,0.5106692454216999
1769250309984,133,5,5.412640268055545,0.9438854440269696,1.0445262533891349
1769250309988,134,6,5.971583918806086,1.38660523150312,1.597777694640996
1769250309992,134,6,6.525000163913347,1.8740070180548765,2.1448787159486287
1769250309996,135,7,7.011632247305122,2.5018974704666315,2.6250439495935143
1769250310000,135,7,7.326084330240316,2.683306821912857,2.933565422748423
1769250310004,135,7,7.347862577861425,2.6849124713922414,2.9503235649907222
1769250310008,135,7,7.001368183653499,2.635192568199095,2.5993541909366904
1769250310012,134,6,6.307588386027609,1.7588286946481375,1.900872857804192
1769250310016,133,5,5.3803656535838025,0.6150320495203561,0.9683462836488914
1769250310020,132,4,4.358745784086135,-0.2927373545116247,-0.0588805699376058
1769250310024,131,3,3.327556153033156,-1.2930756981922549,-1.0954781628673025
1769250310028,130,2,2.2960653308551437,-2.2941505319245925,-2.131994526118164
1769250310032,129,1,1.2518789792882383,-3.2613144007308943,-3.1809930275785328
1769250310036,128,0,0.2344849324281075,-4.288573583721593,-4.203145627165254
1769250310040,127,-1,-0.648393417644185,-5.32147312870269,-5.09064106923193
1769250310044,126,-2,-1.2852682880212074,-6.156599667205692,-5.731999569189959
1769250310048,126,-2,-1.6474387457725757,-6.393340899860212,-6.099076410994192
1769250310052,126,-2,-1.810284607589676,-6.056028969995353,-6.2677821367182895
1769250310056,126,-2,-1.8862688524986684,-6.458762089599595,-6.349855065953625
1769250310060,125,-3,-1.934576137857226,-7.0450710173328295,-6.402789206910269
1769250310064,126,-2,-1.9213921571499633,-6.360504496318828,-6.392263381874853
1769250310068,126,-2,-1.7436708216847774,-6.128102224512845,-6.216933597377353
1769250310072,126,-2,-1.2909018862908777,-6.230185836349518,-5.7683284502293635
1769250310076,127,-1,-0.5211820761369528,-5.234681211727558,-5.00461169835817
1769250310080,128,0,0.4839776550725096,-4.1519273286526825,-4.005532542079228
1769250310084,129,1,1.5365149090711077,-3.2149494460961847,-2.9576347682151773
1769250310088,130,2,2.4423064856833885,-2.152354371458814,-2.0552116629036776
1769250310092,131,3,3.11977134279721,-1.1884838483091764,-1.3810323273574432
